t_s,ch1_uv,ch2_uv,ch3_uv,ch4_uv
0.000000,-351.906,-43309.164,-53133.345,58232.021
0.001000,238746.977,233984.375,9.155,12.159
0.002000,387500.000,49977.350,46921.110,296527.576
0.003000,-365.019,-51172.352,-55938.959,69347.668
0.004000,-211832.857,-224306.488,285194.969,0.000
0.005000,321875.000,3027.344,390.434,169113.588
0.006000,-368.357,-55638.838,-55869.627,75523.996
0.007000,-366.497,-55506.229,-55677.223,76445.484
0.008000,211109.543,-249145.508,0.000,-100000.000
0.009000,-100000.000,399814.939,-27175.665,372741.842
0.010000,-366.640,-53578.806,-53742.599,77479.792
0.011000,-43955.851,-47081.470,-2824.450,-275000.000
0.012000,25000.000,9.155,12.159,-91992.998
0.013000,-355.673,-49254.465,-49410.915,73627.186
0.014000,-351.429,-47406.912,-47560.453,71565.342
0.015000,-45459.080,69101.858,0.143,-200000.000
0.016000,378.418,48.780,-343703.747,-358938.122
0.017000,36.621,-100000.000,399833.632,-20210.695
0.018000,0.000,300094.604,12.159,-84119.272
0.019000,0.000,9.155,-49993.944,-42059.660
0.020000,0.000,4.578,9.155,12.159
0.021000,0.000,0.000,9.155,98437.500
0.022000,0.000,0.000,0.000,4697.800
0.023000,0.000,0.000,0.000,1.144
0.024000,237500.000,0.000,0.000,0.000
0.025000,271561.813,0.000,0.000,0.000
0.026000,-260897.589,-192187.500,0.000,0.000
0.027000,-24177.647,7579.231,0.000,0.000
0.028000,198041.582,-152540.350,-182812.500,0.000
0.029000,-22896.004,-20289.946,-17071.486,0.000
0.030000,-138745.785,94286.489,223485.470,-215112.305
0.031000,-266.266,-20721.483,-19749.594,-30744.743
0.032000,0.715,-4142.046,-315302.324,-317676.592
0.033000,-254.822,-19489.050,-19646.740,-30919.838
0.034000,-224084.806,-264014.149,86462.402,0.000
0.035000,-200000.000,-50000.000,199936.533,195001.268
0.036000,-255.823,-20312.786,-20470.905,-30881.596
0.037000,-253.630,-20623.732,-20782.328,-30874.109
0.038000,-309495.592,-350000.000,9.155,12.159
0.039000,12.159,-65674.210,-125598.526,-166675.282
0.040000,-259.352,-23256.111,-23418.379,-30866.241
0.041000,-24118.471,-24279.165,-30871.201,0.048
0.042000,0.000,2343.750,3123.903,-53228.998
0.043000,-275.135,-27014.685,-28624.153,-30907.583
0.044000,-279.284,-26304.531,-30711.269,-30929.804
0.045000,-379187.489,76770.020,9.155,12.159
0.046000,193750.000,24990.845,199135.542,123882.008
0.047000,-296.307,-28467.417,-36870.289,-24702.883
0.048000,-58699.274,-76373.434,-28879.833,0.000
0.049000,365331.507,117968.750,0.000,0.000
0.050000,-20519.209,-397066.975,-400000.000,0.000
0.051000,-366333.675,378955.317,58850.098,0.000
0.052000,295751.667,-5458.784,203331.137,100000.000
0.053000,-84241.295,-263697.004,-361205.530,-22937.012
0.054000,-332.689,-36917.496,-46833.229,44944.191
0.055000,-339.842,-38559.151,-48610.067,49108.744
0.056000,-342.417,-40342.808,-50483.418,52707.911
0.057000,-349.379,-42260.027,-52059.031,56158.352
0.058000,-357.580,-44226.456,-53355.408,59433.174
0.059000,99954.844,-305776.358,-206798.553,207815.742
0.060000,12.159,-92786.407,-335950.565,285181.618
0.061000,393750.000,24988.461,-351566.219,-351741.171
0.062000,18754.578,6.056,-47632.265,-254455.996
0.063000,4.578,49218.750,3123.522,352915.382
0.064000,-373.411,-54886.580,-56081.247,73532.104
0.065000,9.155,12.159,-95288.944,172521.114
0.066000,-373.363,-55443.621,-55614.471,76749.325
0.067000,-375.223,-55178.404,-55345.726,77367.973
0.068000,12.016,0.715,-5967.045,-64476.109
0.069000,-370.455,-53241.920,-53403.854,77317.715
0.070000,-367.880,-52419.138,-52579.498,76740.313
0.071000,-181011.057,-400000.000,2734.375,1561.785
0.072000,12.159,-91431.427,349449.921,309009.886
0.073000,-353.861,-46660.995,-46815.920,70728.970
0.074000,-219654.036,-258495.092,-146948.242,10.681
0.075000,0.000,11718.750,3123.665,131088.781
0.076000,-336.409,-40030.050,-40179.920,60549.259
0.077000,-331.926,-38688.135,-38840.294,57923.794
0.078000,-349785.137,-40625.000,189.209,24.366
0.079000,0.000,0.000,9.155,12.159
0.080000,-312.090,-32879.782,-33029.890,46022.844
0.081000,-309.896,-31230.879,-31365.728,41020.823
0.082000,-304.985,-29441.690,-29339.361,28980.494
0.083000,-298.548,-27600.288,-26591.301,15812.397
0.084000,-292.969,-25705.385,-23668.957,2941.751
0.085000,199928.045,-206011.343,394548.082,397633.171
0.086000,12.159,-71973.038,-226599.455,192004.061
0.087000,-12500.000,49982.643,148647.070,348703.051
0.088000,37521.362,12.159,-70129.728,236401.033
0.089000,9.155,98437.500,6247.854,-100159.264
0.090000,0.000,4698.944,3.004,-17150.974
0.091000,0.000,2.289,11718.750,3123.951
0.092000,0.000,0.000,2346.706,0.334
0.093000,0.000,0.000,0.286,2734.375
0.094000,0.000,0.000,0.000,1172.209
0.095000,0.000,0.000,0.000,0.000
0.096000,-262.785,-20899.963,-21058.035,-30874.348
0.097000,81165.886,-31370.592,121875.000,2734.375
0.098000,10.681,6.056,-34027.290,274902.153
0.099000,-268.888,-23743.105,-23906.326,-30872.345
0.100000,-69018.936,107580.185,66222.668,96008.301
0.101000,-30883.980,0.000,-200000.000,-275.230
0.102000,3123.903,124894.762,6135.130,40504.217
0.103000,-284.052,-26475.000,-31519.938,-30940.056
0.104000,177994.442,-215745.974,-96875.000,94.604
0.105000,9.155,12.159,-76477.480,4369.545
0.106000,-302.887,-28930.616,-37358.332,-21104.813
0.107000,-615.644,-59665.728,-77627.611,-21911.621
0.108000,-698.566,0.000,2343.750,3123.760
0.109000,0.000,0.000,2343.750,3123.760
0.110000,-326.586,-34543.705,-44530.821,30464.888
0.111000,-72271.299,-85932.589,-242968.750,9.155
0.112000,0.000,5468.750,3123.665,40471.888
0.113000,0.000,2345.228,0.143,-1380.777
0.114000,0.000,0.143,2343.798,-690.413
0.115000,0.000,0.048,-399999.857,-200000.000
0.116000,0.000,0.000,0.000,-198535.156
0.117000,0.000,0.000,0.000,300000.000
0.118000,-400000.000,0.000,0.000,0.000
0.119000,-10766.602,0.000,0.000,0.000
0.120000,308847.046,-300000.000,0.000,0.000
0.121000,-7054.567,159033.203,0.000,0.000
0.122000,-375879.002,176155.758,-137500.000,0.000
0.123000,-371765.375,-391222.858,12677.002,0.000
0.124000,259157.467,115406.752,-212202.406,-256250.000
0.125000,-2999.544,356336.927,354978.943,-184289.169
0.126000,-373.888,-55128.431,-55293.369,77486.658
0.127000,-372.362,-54582.357,-54748.964,77697.182
0.128000,-781.250,3123.522,-278331.852,-122082.472
0.129000,-369.787,-52089.977,-52252.007,76465.130
0.130000,84175.062,193549.442,69045.210,-212500.000
0.131000,42087.507,-303225.708,12.159,-90137.482
0.132000,24989.033,-151437.426,223557.806,27183.771
0.133000,-348.902,-43980.360,-44132.900,67278.147
0.134000,-84893.131,129442.692,0.000,2343.750
0.135000,2880.859,195.217,245888.662,-148642.588
0.136000,-327.587,-38543.558,-38693.714,56968.451
0.137000,-204648.161,206751.394,200000.000,2636.719
0.138000,9.155,12.159,-80249.548,73302.698
0.139000,-305.700,-32548.714,-32698.250,44847.631
0.140000,-38611.078,49828.863,31970.501,21075.439
0.141000,-67071.533,0.000,5468.750,3123.856
0.142000,390.482,62487.650,-287120.867,102733.707
0.143000,-281.286,-23627.472,-21652.222,-13422.489
0.144000,65543.270,-21970.224,225000.000,0.000
0.145000,246582.031,0.000,0.000,0.000
0.146000,-375484.085,-250000.000,0.000,0.000
0.147000,305322.123,-381527.710,0.000,0.000
0.148000,305322.123,-381527.710,0.000,0.000
0.149000,-158993.959,-160245.943,-247406.769,0.000
0.150000,-212578.058,-371953.678,-362620.783,-343750.000
0.151000,-258.160,-20119.238,-20278.025,-30898.142
0.152000,-258.017,-20364.618,-20521.927,-30886.126
0.153000,-256.729,-20636.892,-20794.916,-30876.589
0.154000,-257.015,-20959.568,-21117.973,-30868.626
0.155000,-258.684,-21507.692,-21665.812,-30866.814
0.156000,-260.592,-22179.556,-22340.059,-30867.529
0.157000,3123.951,362409.830,-9465.790,-218870.592
0.158000,0.143,-1053.667,-95799.685,-96447.802
0.159000,2929.688,780.964,-385961.819,339038.038
0.160000,-268.650,-26236.725,-26405.144,-15445.518
0.161000,-100000.000,399861.431,-13446.188,384967.995
0.162000,-280.333,-26717.424,-32130.289,-30948.925
0.163000,253018.904,362367.630,-353246.021,-75000.000
0.164000,178125.000,9.155,12.159,-75293.446
0.165000,-299.931,-29386.044,-37836.647,-17416.286
0.166000,-307.751,-30351.877,-39272.547,-7284.880
0.167000,-40619.659,2902.079,0.143,-200000.000
0.168000,2343.750,3123.713,-134507.513,74831.200
0.169000,-325.298,-35290.051,-44726.467,34356.546
0.170000,-143893.623,-31431.150,40793.657,159375.000
0.171000,-227270.508,9.155,12.159,-88110.971
0.172000,0.000,4.578,6.056,-44055.510
0.173000,-357.342,-43936.539,-53063.488,58476.210
0.174000,-216549.301,246530.151,0.000,2343.750
0.175000,3027.344,390.434,199585.009,216769.743
0.176000,-368.643,-51775.503,-55899.668,69522.285
0.177000,-368.166,-53485.584,-55971.003,71428.299
0.178000,-373.173,-54744.959,-55944.967,73061.705
0.179000,-373.363,-55475.760,-55900.526,74448.061
0.180000,3123.522,331032.991,-62717.724,-184079.790
0.181000,-399999.952,-748.682,-110690.165,-111030.579
0.182000,-396972.656,390.434,139816.809,-76980.114
0.183000,293.016,-200000.000,-369.263,-54679.918
0.184000,0.000,-199621.582,48.780,-377933.025
0.185000,0.000,36.621,-50000.000,199908.066
0.186000,0.000,0.000,150045.776,12.159
0.187000,0.000,0.000,9.155,393750.000
0.188000,0.000,0.000,0.000,18759.155
0.189000,0.000,0.000,0.000,9.155
0.190000,243750.000,0.000,0.000,0.000
0.191000,-114564.514,0.000,0.000,0.000
0.192000,-339.508,-43292.379,-43444.490,66348.314
0.193000,-41695.404,-41847.801,63797.283,0.334
0.194000,-41695.404,-41406.250,3123.713,306097.078
0.195000,-318.003,-37659.168,-37808.847,55882.597
0.196000,-313.997,-36199.617,-36351.919,52899.599
0.197000,116458.082,-31103.516,9.155,12.159
0.198000,-62500.000,49981.117,-202000.427,-252009.916
0.199000,-295.877,-30328.226,-30464.935,32911.205
0.200000,-228663.683,-229486.084,157059.860,0.000
0.201000,-184375.000,2929.688,780.964,203100.777
0.202000,-275.660,-23294.020,-21922.588,-17798.996
0.203000,-270.844,-22095.633,-21275.711,-27495.003
0.204000,211107.922,113403.320,0.000,-200000.000
0.205000,-200000.000,-261.593,-20205.021,-20360.231
0.206000,-259.399,-20028.782,-20185.041,-30938.911
0.207000,307461.405,-378796.387,0.000,5468.750
0.208000,384.521,24.366,-129785.776,23680.973
0.209000,18.311,-25000.000,99968.100,297434.092
0.210000,0.000,75045.776,12.159,-65161.467
0.211000,0.000,9.155,196875.000,12495.995
0.212000,0.000,0.000,9385.681,6.056
0.213000,0.000,0.000,4.578,24218.750
0.214000,0.000,0.000,0.000,2349.663
0.215000,0.000,0.000,0.000,0.572
0.216000,325000.000,0.000,0.000,0.000
0.217000,-61775.303,0.000,0.000,0.000
0.218000,295297.384,-324609.375,0.000,0.000
0.219000,-28797.960,-30915.499,0.000,0.000
0.220000,-342775.345,-371828.079,320019.531,0.000
0.221000,-6751.299,-8201.504,192259.741,0.000
0.222000,-73889.589,152697.182,-18249.989,68798.828
0.223000,-291.204,-28225.994,-35795.689,-30453.300
0.224000,399852.324,385489.988,381560.659,388010.836
0.225000,-307.894,-30893.183,-39716.196,-3566.360
0.226000,-196021.175,-124291.897,64404.297,0.000
0.227000,300000.000,-12500.000,49979.973,-202157.354
0.228000,-322.676,-35918.283,-45524.645,38033.867
0.229000,-330.544,-37445.593,-47165.155,45283.985
0.230000,-78858.089,391406.250,11.444,3.004
0.231000,3.004,-22320.747,-338910.151,-153451.347
0.232000,-354.147,-44782.829,-53591.776,59633.017
0.233000,-46786.404,-54535.007,62727.737,0.000
0.234000,0.000,2343.750,3123.569,190426.826
0.235000,-365.734,-52580.595,-56005.287,70264.530
0.236000,-367.451,-54130.316,-56044.054,72063.208
0.237000,56324.339,-356567.383,9.155,12.159
0.238000,48437.500,6247.091,-150434.494,43314.123
0.239000,-366.783,-55395.889,-55562.973,76785.088
0.240000,-366.783,-55395.889,-55562.973,76785.088
0.241000,12599.993,-230126.953,0.000,0.000
0.242000,-306754.494,9708.118,-100000.000,0.000
0.243000,17845.821,-23350.906,-214709.473,0.000
0.244000,24184.132,-63318.348,213698.006,-237500.000
0.245000,-46075.869,-178589.296,-198967.934,114166.260
0.246000,-356.388,-50081.682,-50239.182,74586.058
0.247000,-353.289,-48423.719,-48579.550,72798.967
0.248000,-344.992,-46484.423,-46638.823,70546.627
0.249000,-338.650,-44476.938,-44630.003,67986.631
0.250000,-335.407,-42780.209,-42932.749,65411.711
0.251000,24989.700,223707.676,-51297.092,-123035.479
0.252000,12.159,-83667.612,109459.829,71241.140
0.253000,98437.500,6247.473,299696.255,218445.015
0.254000,4697.800,1.478,-10121.250,-395237.827
0.255000,1.144,11718.750,3123.760,352984.524
0.256000,-307.322,-34684.134,-34838.057,48948.669
0.257000,10.681,6.056,-38074.017,-45587.444
0.258000,-289.440,-29962.063,-30097.914,28123.045
0.259000,-282.621,-28128.338,-28254.366,15030.575
0.260000,2103.472,0.000,2343.750,3123.903
0.261000,12.159,-68494.034,-301001.358,-107080.412
0.262000,-263.405,-21975.279,-21722.031,-29431.152
0.263000,178844.881,151647.472,74572.754,9.155
0.264000,0.000,96875.000,12496.042,299683.475
0.265000,-249.720,-20139.694,-20297.146,-30935.574
0.266000,-250.769,-20176.268,-20332.861,-30917.406
0.267000,-68870.735,334375.000,1538.086,97.609
0.268000,0.715,-3994.799,-332644.701,-335173.845
0.269000,-252.056,-21085.310,-21243.286,-30880.451
0.270000,90295.076,49267.101,96606.445,0.000
0.271000,300000.000,-125000.000,99968.004,297126.198
0.272000,-256.252,-23858.166,-24018.335,-30879.021
0.273000,-259.495,-24674.511,-24839.497,-30881.929
0.274000,6247.902,-118952.227,-143953.466,162258.625
0.275000,6.056,-34173.822,-302874.994,-338360.834
0.276000,-268.888,-27634.859,-29524.899,-30923.700
0.277000,780.964,308567.286,319500.446,250751.019
0.278000,-200000.000,-279.474,-27404.594,-33324.575
0.279000,-199243.164,97.609,211129.379,250093.365
0.280000,73.242,-100000.000,399853.849,-14373.302
0.281000,0.000,300094.604,12.159,-75659.657
0.282000,0.000,9.155,387500.000,49981.403
0.283000,0.000,0.000,37509.155,12.159
0.284000,0.000,0.000,9.155,48437.500
0.285000,0.000,0.000,0.000,4699.326
0.286000,0.000,0.000,0.000,1.144
0.287000,-231250.000,0.000,0.000,0.000
0.288000,-328.493,-38328.028,-47356.319,46921.444
0.289000,-377545.071,23443.651,-234570.313,9.155
0.290000,0.000,-25000.000,99956.799,194526.386
0.291000,-350.523,-45775.366,-53705.502,60795.832
0.292000,-5651.903,35591.793,-72716.475,220363.617
0.293000,-215365.267,209375.000,2734.375,1561.785
0.294000,6.056,-46106.386,367217.588,39526.892
0.295000,-362.349,-54683.876,-55920.458,72654.438
0.296000,218114.376,105848.265,-229980.469,0.048
0.297000,0.000,-200000.000,-364.542,-55228.662
0.298000,-364.542,-55003.595,-55167.294,77039.909
0.299000,-362.968,-54709.005,-54874.468,77540.398
0.300000,312803.555,140625.000,94.604,12.159
0.301000,12.159,-92102.861,130174.971,89295.578
0.302000,-357.103,-51841.545,-52001.429,76445.103
0.303000,-101684.618,-102000.237,150976.753,0.715
0.304000,0.000,10.681,6.056,-44092.178
0.305000,0.000,4.578,24218.750,3123.665
0.306000,0.000,0.000,2355.766,0.715
0.307000,0.000,0.000,0.572,5468.750
0.308000,0.000,0.000,0.000,2345.228
0.309000,0.000,0.000,0.000,0.048
0.310000,-253125.000,0.000,0.000,0.000
0.311000,56710.243,0.000,0.000,0.000
0.312000,384186.220,-318652.344,0.000,0.000
0.313000,-17766.237,-374596.977,0.000,0.000
0.314000,78393.030,39417.219,247082.520,0.000
0.315000,-102035.427,-52044.868,152778.482,0.000
0.316000,-74768.543,72558.117,35803.747,-239611.816
0.317000,-286.198,-29291.248,-29423.094,23322.773
0.318000,-279.188,-27398.539,-27495.003,10310.221
0.319000,-273.705,-25505.304,-25278.616,-2380.466
0.320000,-247.192,12.159,-67969.131,-221448.135
0.321000,-261.784,-21792.269,-21802.187,-30455.828
0.322000,-65600.920,179308.748,140270.519,67504.883
0.323000,-61931.133,0.334,-200000.000,-252.485
0.324000,3123.999,-309454.823,-56330.442,-59495.831
0.325000,-247.002,-20463.657,-20625.544,-30916.405
0.326000,399876.499,389768.171,389687.204,-14855.957
0.327000,9.155,12.159,-63330.412,190624.666
0.328000,-251.484,-21424.055,-21584.272,-30881.405
0.329000,-3994.799,-349989.367,-352507.830,305964.661
0.330000,305995.941,0.000,2343.750,3123.999
0.331000,97.609,280954.027,-69534.254,-396585.846
0.332000,-255.156,-25126.648,-25287.390,-30888.176
0.333000,-203150.988,289032.316,196093.750,9.155
0.334000,0.000,-200000.000,-269.842,-27687.168
0.335000,-275.421,-27371.693,-32184.792,-30958.939
0.336000,-36065.912,-359802.532,-334961.176,34490.967
0.337000,-84338.951,-228540.516,98632.813,0.000
0.338000,148172.045,97726.583,-351659.966,-300000.000
0.339000,-75293.446,289415.884,-24084.759,-239453.125
0.340000,-299.978,-31094.790,-39048.004,-6387.758
0.341000,-303.793,-32194.185,-40396.547,3755.140
0.342000,-307.798,-33391.571,-41609.573,13687.754
0.343000,-313.568,-34673.452,-42989.492,24287.701
0.344000,-318.336,-36063.671,-44456.196,35229.397
0.345000,99959.469,195305.061,-105758.953,5466.223
0.346000,12.159,-83325.815,370690.155,-236986.589
0.347000,-333.881,-40931.463,-49738.836,51975.060
0.348000,3123.665,90457.678,259174.442,-365408.421
0.349000,0.143,-1380.968,-179140.329,-210813.904
0.350000,2929.688,780.869,-125826.931,185884.905
0.351000,586.081,-200000.000,-352.335,-48754.454
0.352000,-357.819,-50707.817,-55257.130,68554.688
0.353000,9.155,12.159,-92530.155,-242408.085
0.354000,-361.300,-55069.923,-55763.102,73207.140
0.355000,-46466.494,108367.491,79065.466,-54779.053
0.356000,88500.977,0.000,11718.750,3123.569
0.357000,780.869,-389116.049,40571.260,-281174.564
0.358000,-363.302,-54431.677,-54598.284,77648.640
0.359000,-78336.000,353428.555,-284375.000,192.261
0.360000,0.715,-399999.952,-710.440,-104571.199
0.361000,-355.053,-51517.534,-51677.513,76174.307
0.362000,-90198.565,-88953.447,-129210.281,4516.602
0.363000,176146.221,-212500.000,196875.000,12494.612
0.364000,97.609,107221.031,-122368.813,363289.595
0.365000,-333.357,-43173.790,-43325.233,66144.371
0.366000,-178330.517,10562.372,-345117.188,5.913
0.367000,5.913,0.715,-5130.816,173374.128
0.368000,-312.614,-37647.676,-37798.405,55651.855
0.369000,-306.702,-36224.318,-36374.044,52670.240
0.370000,-303.602,-34929.466,-35080.671,49746.656
0.371000,390.434,-60172.701,-141422.749,206272.793
0.372000,-200000.000,-296.068,-32073.307,-32222.319
0.373000,-199230.957,48.780,-297511.625,55027.390
0.374000,36.621,-100000.000,399857.187,-14275.312
0.375000,0.000,300094.604,12.159,-71960.878
0.376000,0.000,9.155,387500.000,49982.834
0.377000,0.000,0.000,37509.155,12.159
0.378000,0.000,0.000,9.155,48437.500
0.379000,0.000,0.000,0.000,4699.326
0.380000,0.000,0.000,0.000,1.144
0.381000,68750.000,0.000,0.000,0.000
0.382000,-123839.188,0.000,0.000,0.000
0.383000,-61919.594,0.000,0.000,0.000
0.384000,-248.003,-20418.596,-20575.237,-30916.023
0.385000,-206330.585,65543.795,118629.265,165625.000
0.386000,183349.609,1.478,-399999.952,-495.005
0.387000,-248.289,-21502.924,-21661.472,-30881.453
0.388000,-247.097,-22065.592,-22224.951,-30877.829
0.389000,-150718.069,49035.120,0.000,393750.000
0.390000,1513.672,195.217,-244732.571,367181.444
0.391000,-259.161,-25576.782,-25737.333,-30893.660
0.392000,241783.667,122252.321,320688.009,-376171.875
0.393000,-279108.191,-338867.569,1.478,-8635.044
0.394000,3123.903,124891.853,215496.874,53003.979
0.395000,-282.288,-28224.564,-34309.673,-30991.316
0.396000,-17790.365,-15111.446,0.000,2734.375
0.397000,21.362,12.159,-75366.688,154357.290
0.398000,-298.119,-31677.771,-39457.369,-2635.670
0.399000,-77405.310,396569.157,-17504.787,281384.277
0.400000,-341516.113,0.000,10.300,1.478
0.401000,0.000,0.000,1.144,11718.750
0.402000,0.000,0.000,0.000,2346.706
0.403000,0.000,0.000,0.000,0.286
0.404000,0.000,0.000,0.000,0.000
0.405000,53235.245,0.000,0.000,0.000
0.406000,26617.622,0.000,0.000,0.000
0.407000,-53338.861,59904.337,0.000,0.000
0.408000,-384279.013,257179.642,233715.820,0.000
0.409000,-206205.559,93152.809,-391779.900,-400000.000
0.410000,-91199.541,392015.743,259107.447,-121301.270
0.411000,-358.295,-53316.784,-55559.683,70398.712
0.412000,-358.629,-54574.537,-55681.467,72179.365
0.413000,-358.057,-55300.808,-55680.227,73697.329
0.414000,-360.727,-55327.892,-55507.374,74978.971
0.415000,-362.635,-55063.677,-55233.240,76017.380
0.416000,-360.489,-54711.914,97.609,55071.449
0.417000,-359.392,-54074.955,-54236.507,77680.254
0.418000,-53526.688,-53688.383,77662.420,0.000
0.419000,358203.125,0.715,-399999.952,-711.393
0.420000,399824.381,-25558.472,-25639.248,-362076.664
0.421000,-344.753,-49825.430,-49982.643,74509.192
0.422000,-100755.310,263635.588,300000.000,184375.000
0.423000,756.836,97.609,121381.283,-340239.811
0.424000,-327.444,-42549.419,-42700.243,65255.165
0.425000,280849.314,-228721.046,-41781.569,88867.188
0.426000,163167.572,5.913,0.715,-4949.999
0.427000,3123.808,96730.137,59229.517,-362286.615
0.428000,-303.698,-35638.142,-35789.442,51664.352
0.429000,391389.608,-187815.952,-200000.000,2929.688
0.430000,9.155,12.159,-73499.012,6005.335
0.431000,-282.049,-29563.284,-29694.271,27241.182
0.432000,-35449.457,-344848.871,-339300.442,213818.359
0.433000,90528.440,96880.102,56250.000,0.000
0.434000,-192279.863,-178789.568,-88367.462,0.000
0.435000,248392.963,-296917.343,-120356.274,-120312.500
0.436000,-256.395,-21705.437,-21249.962,-29673.433
0.437000,-250.769,-20953.846,-20967.197,-30975.199
0.438000,-247.908,-20394.611,-20547.724,-30972.433
0.439000,-243.473,-20052.385,-20210.123,-30952.883
0.440000,-241.804,-20021.772,-20180.655,-30934.334
0.441000,-242.805,-20123.672,-20279.837,-30921.698
0.442000,3124.046,62420.797,-356329.823,-300120.783
0.443000,0.143,-966.883,-82072.496,-82700.586
0.444000,2929.688,781.012,67948.389,-42208.004
0.445000,586.081,-200000.000,-241.470,-21099.663
0.446000,0.000,-199243.164,97.609,306540.298
0.447000,0.000,73.242,-100000.000,399878.979
0.448000,-241.470,-23070.574,-23234.081,-30880.737
0.449000,109375.000,3076.172,195.217,-225396.681
0.450000,-256.872,-26008.940,-26172.352,-30898.142
0.451000,-256.014,-27553.654,-27765.751,-30911.970
0.452000,-376050.282,82348.633,0.000,-50000.000
0.453000,-50000.000,199931.765,-206973.267,-8342.123
0.454000,-280.142,-28498.936,-34778.929,-30985.117
0.455000,-134489.298,-325140.238,-34486.866,-246875.000
0.456000,-100000.000,9.155,12.159,-74744.129
0.457000,-295.877,-32113.981,-39893.961,929.070
0.458000,-299.454,-33274.603,-41211.653,10915.470
0.459000,-42550.611,21255.922,0.048,-200000.000
0.460000,2343.750,3123.760,206104.183,-87678.480
0.461000,-322.342,-38887.978,-47408.056,47240.210
0.462000,399838.829,380556.011,376295.948,-376379.919
0.463000,-105590.820,9.155,12.159,-86902.571
0.464000,24989.128,-1448.584,298320.246,-298092.699
0.465000,1561.785,-314156.914,13955.784,193874.979
0.466000,-200000.000,-352.335,-50328.064,-55216.789
0.467000,-198486.328,195.217,139049.721,-296693.325
0.468000,146.484,-200000.000,-359.726,-53869.486
0.469000,0.000,-199810.791,24.366,-183424.568
0.470000,0.000,18.311,-25000.000,99954.987
0.471000,0.000,0.000,75021.362,12.159
0.472000,0.000,0.000,9.155,196875.000
0.473000,0.000,0.000,0.000,9386.444
0.474000,0.000,0.000,0.000,2.289
0.475000,0.000,0.000,0.000,2.289
0.476000,-178036.499,0.000,0.000,0.000
0.477000,53427.982,-231250.000,0.000,0.000
0.478000,-105991.459,154118.156,0.000,0.000
0.479000,-170728.636,116443.539,374218.750,0.000
0.480000,-343.561,-49460.173,-49614.668,73912.048
0.481000,-341.988,-47558.594,-47713.470,71907.806
0.482000,50271.416,-340625.000,45.776,12.159
0.483000,12.159,-84155.941,-295789.242,-334239.769
0.484000,-322.104,-40335.751,-40487.576,61823.082
0.485000,-39049.244,-39198.017,59280.682,0.334
0.486000,-200000.000,-308.275,-36042.452,-36191.225
0.487000,-302.601,-34633.636,-34779.882,50617.838
0.488000,-338020.134,274477.863,744.200,-100000.000
0.489000,-275000.000,378.418,48.780,-296535.063
0.490000,-283.337,-28410.912,-27145.576,22409.010
0.491000,-274.944,-26494.741,-24360.180,9479.237
0.492000,-348423.052,-52368.927,5.722,0.000
0.493000,-172656.250,3123.951,331164.837,-112577.009
0.494000,-257.206,-20826.578,-19712.448,-30586.958
0.495000,-302523.899,-202496.815,-303873.158,-400000.000
0.496000,-133593.750,0.000,96875.000,12496.138
0.497000,0.000,0.000,9386.444,3.004
0.498000,0.000,0.000,2.289,11718.750
0.499000,0.000,0.000,0.000,2346.706
0.500000,0.000,0.000,0.000,0.286
0.501000,382812.500,0.000,0.000,0.000
0.502000,-30886.602,0.000,0.000,0.000
0.503000,381242.418,-90039.063,0.000,0.000
0.504000,-21537.352,-30879.211,0.000,0.000
0.505000,-102149.153,-184913.063,190209.961,0.000
0.506000,197120.476,-202899.694,-103860.188,-200000.000
0.507000,-64856.339,273962.021,232543.468,93444.824
0.508000,-254.393,-24908.352,-25070.047,-30889.225
0.509000,-258.875,-26360.798,-26521.635,-30898.523
0.510000,-262.356,-27862.310,-28277.636,-30914.736
0.511000,-264.215,-27792.740,-30363.321,-30936.098
0.512000,-269.938,-3125.000,12495.661,324565.077
0.513000,-279.522,-28459.263,-35688.972,-30781.317
0.514000,-567.293,-58484.602,-73799.562,-51693.630
0.515000,-300061.417,-368750.000,1513.672,195.217
0.516000,1.478,-9538.364,-229280.186,280839.539
0.517000,-304.699,-33362.341,-42486.763,14530.230
0.518000,-68091.536,-34154.892,47460.938,0.000
0.519000,200000.000,-200000.000,0.000,0.000
0.520000,-323.248,-39117.336,-48944.092,48616.886
0.521000,-329.494,-40872.192,-50870.991,52238.703
0.522000,68967.485,396875.000,9.155,12.159
0.523000,6.056,-44012.833,-382336.855,188129.091
0.524000,-344.753,-48713.255,-55566.072,64997.244
0.525000,-50648.689,-56144.810,67594.767,0.048
0.526000,0.000,2343.750,3123.569,-211.668
0.527000,-354.528,-55406.332,-56565.237,73308.372
0.528000,-355.673,-56056.070,-56451.654,74653.816
0.529000,248248.959,-26756.716,-172632.599,0.000
0.530000,-91480.350,119164.181,76441.574,-381542.969
0.531000,-358.915,-55517.292,-55685.043,77297.497
0.532000,-357.008,-55016.041,-55180.311,77659.130
0.533000,-356.388,-54365.730,-54528.332,77715.397
0.534000,-353.622,-53536.463,-53701.591,77420.235
0.535000,-350.714,-52642.393,-52802.086,76852.560
0.536000,399824.619,-26321.220,-26401.043,38426.256
0.537000,12.159,-89173.174,-133240.557,-173265.505
0.538000,187506.056,-44586.611,-66620.302,-86632.776
0.539000,8.392,3.004,-21603.584,198797.417
0.540000,2.289,24218.750,3123.665,-275174.904
0.541000,0.000,2349.663,0.715,-5247.545
0.542000,0.000,0.572,2343.750,3123.713
0.543000,0.000,0.000,2344.465,-399999.952
0.544000,-312.090,-38656.521,-38807.011,58341.980
0.545000,-193064.785,200000.000,-50000.000,199924.040
0.546000,780.916,-50814.724,-356283.617,383642.149
0.547000,-292.635,-32867.479,-33013.630,46519.089
0.548000,143688.822,82.302,-157812.500,4.578
0.549000,10.681,6.056,-35614.252,-350348.139
0.550000,-272.131,-25750.446,-23199.034,4861.403
0.551000,-267.267,-23970.890,-20975.351,-7679.701
0.552000,-19415.903,0.000,2343.750,3123.999
0.553000,12.159,-64648.771,329906.893,-283484.364
0.554000,-248.766,-19949.436,-19930.935,-30977.774
0.555000,-185730.314,-224719.715,98437.500,6248.045
0.556000,12.159,-62622.404,-198352.385,-238953.114
0.557000,-244.474,-19642.639,-19799.519,-30911.255
0.558000,-158898.592,-160187.960,-247174.072,1.478
0.559000,0.000,2343.750,3123.999,-34455.061
0.560000,-245.285,-20950.842,-21109.915,-30879.307
0.561000,-245.523,-21583.557,-21741.343,-30877.113
0.562000,3123.999,-109462.595,112411.785,221754.360
0.563000,1.478,-8004.808,52267.408,47163.296
0.564000,5468.750,3123.999,256155.252,-140720.367
0.565000,2345.228,0.143,-1029.253,-101645.327
0.566000,0.143,2343.798,-514.650,-50822.687
0.567000,0.048,-399999.857,-200000.000,-265.408
0.568000,0.000,0.000,-198461.914,97.609
0.569000,0.000,0.000,73.242,-200000.000
0.570000,0.000,0.000,0.000,-199807.739
0.571000,0.000,0.000,0.000,9.155
0.572000,0.000,0.000,0.000,0.000
0.573000,-114587.402,0.000,0.000,0.000
0.574000,287310.362,-312500.000,0.000,0.000
0.575000,-172784.472,-121319.580,0.000,0.000
0.576000,-303.316,-33725.595,-42799.950,18237.066
0.577000,-79529.381,-167761.946,-143493.223,269287.109
0.578000,-282019.043,0.000,48437.500,6247.473
0.579000,3123.713,212345.409,-390819.407,-196679.974
0.580000,-333.643,-41368.580,-51636.744,53498.507
0.581000,-87707.329,193972.254,-387500.000,756.836
0.582000,2.956,0.334,-2779.436,-378549.623
0.583000,-350.189,-49321.127,-55646.181,65961.361
0.584000,-90345.049,-325074.100,44336.939,-75512.695
0.585000,108819.199,200000.000,-25000.000,99955.034
0.586000,390.434,254269.695,-69168.139,200036.001
0.587000,-359.106,-55938.101,-56180.525,75075.436
0.588000,399820.423,-27969.074,-28090.286,-362454.987
0.589000,9.155,0.000,0.000,1.144
0.590000,-356.245,-54674.339,-54837.561,77712.917
0.591000,-356.770,-53998.995,-54161.978,77654.600
0.592000,77227.831,0.000,0.000,-25000.000
0.593000,0.000,0.000,0.000,75045.776
0.594000,0.000,0.000,0.000,9.155
0.595000,-250000.000,0.000,0.000,0.000
0.596000,-315667.725,0.000,0.000,0.000
0.597000,-124725.676,103125.000,0.000,0.000
0.598000,92849.779,282238.007,0.000,0.000
0.599000,346709.299,-174745.846,137500.000,0.000
0.600000,-81481.504,-81786.728,125061.607,0.000
0.601000,-202753.687,-364081.860,14482.403,-371875.000
0.602000,-313.330,-38153.410,-38302.469,57345.152
0.603000,-309.038,-36560.965,-36708.879,54405.403
0.604000,-302.744,-35081.387,-35228.729,51441.336
0.605000,-299.549,-33763.027,-33908.367,48491.859
0.606000,-295.448,-32288.647,-32420.588,45321.035
0.607000,-290.871,-30705.166,-30628.967,39039.755
0.608000,-284.481,-28991.747,0.143,-1110.888
0.609000,-271.034,-25043.058,-22204.971,238.180
0.610000,-262.260,-23466.349,-20619.011,-11972.713
0.611000,-251244.116,348545.933,350000.000,-12500.000
0.612000,3027.344,390.482,348036.861,185146.332
0.613000,-247.192,-19915.867,-20043.802,-30972.767
0.614000,-30487.919,351543.188,182782.269,93750.000
0.615000,384756.041,175780.487,3.004,-15606.785
0.616000,3124.046,140547.514,46796.846,-3245.735
0.617000,-240.755,-20121.908,-20280.313,-30896.759
0.618000,-20545.435,-30887.461,0.000,2343.750
0.619000,45.776,12.159,-61621.428,166430.330
0.620000,-244.141,-21904.898,-22064.066,-30876.350
0.621000,-63269.424,-241601.944,-282678.699,95837.402
0.622000,94799.805,0.000,48437.500,6248.045
0.623000,3123.999,234273.338,-356352.282,159254.265
0.624000,-257.683,-27520.609,-27835.608,-30912.876
0.625000,-55354.452,-59613.752,-61857.224,0.000
0.626000,216392.994,50765.657,387094.259,43750.000
0.627000,-269.461,-27486.515,-33793.688,-30976.725
0.628000,-274.849,-28080.654,-35304.832,-30964.422
0.629000,-279.474,-28830.957,-36487.389,-28035.831
0.630000,-283.718,-29678.774,-37742.233,-18525.648
0.631000,-289.011,-30622.959,-39255.953,-8413.887
0.632000,-294.495,-31695.795,-40655.565,1825.714
0.633000,1561.880,-251626.730,187418.175,187522.936
0.634000,-200000.000,-303.698,-34137.344,-43241.215
0.635000,-198486.328,195.217,338663.197,270301.533
0.636000,146.484,-200000.000,-312.424,-36945.677
0.637000,0.000,-199810.791,24.366,-164136.934
0.638000,0.000,18.311,-25000.000,99959.183
0.639000,0.000,0.000,75021.362,12.159
0.640000,-337.124,-44059.515,-53144.455,58095.837
0.641000,-77755.737,11.444,3.004,-22088.814
0.642000,3123.617,374804.688,374782.324,-15363.646
0.643000,-349.998,-51877.546,-56252.575,69283.199
0.644000,-56413.746,71235.704,0.000,2343.750
0.645000,85.449,0.000,0.000,2343.750
0.646000,-355.816,-55944.157,-56142.902,75489.569
0.647000,-91431.522,121459.103,77784.348,365905.762
0.648000,-250170.898,0.000,48437.500,6247.187
0.649000,3123.617,127911.997,246661.329,-168446.350
0.650000,-352.144,-53737.640,-53902.245,77548.075
0.651000,277918.005,97175.837,-18750.000,756.836
0.652000,2.956,0.334,-2766.085,392200.041
0.653000,-343.990,-49388.409,-49545.717,73776.770
0.654000,-86743.927,-158606.720,-198436.451,-30053.711
0.655000,208665.133,100000.000,-25000.000,99958.897
0.656000,0.000,0.000,37500.000,49979.448
0.657000,-200000.000,-320.768,-40290.213,-40441.275
0.658000,-198486.328,195.217,308974.791,-62704.897
0.659000,146.484,-200000.000,-313.568,-37598.324
0.660000,0.000,-199810.791,24.366,-158204.269
0.661000,0.000,18.311,-25000.000,99961.948
0.662000,0.000,0.000,75021.362,12.159
0.663000,0.000,0.000,9.155,96875.000
0.664000,0.000,0.000,0.000,9384.155
0.665000,0.000,0.000,0.000,4687.500
0.666000,237500.000,0.000,0.000,0.000
0.667000,168750.000,0.000,0.000,0.000
0.668000,173429.298,206250.000,0.000,0.000
0.669000,-20063.639,-16192.007,0.000,0.000
0.670000,-147665.882,-49622.345,-326953.125,0.000
0.671000,-20836.544,-19910.097,-30686.569,0.000
0.672000,-247.049,-19656.706,-19798.994,-30965.567
0.673000,-245.333,-19483.900,-19642.305,-30949.402
0.674000,-237878.895,82470.703,0.000,46093.750
0.675000,48437.500,6248.093,349845.028,243593.788
0.676000,-238.752,-20114.660,-20274.639,-30893.517
0.677000,343670.225,-178205.395,-284495.687,-34375.000
0.678000,381250.000,3.004,0.143,-973.749
0.679000,-247.765,-22099.495,-22260.714,-30875.254
0.680000,-249.004,-23056.078,-23216.295,-30879.498
0.681000,148493.862,348070.002,-150000.000,-12500.000
0.682000,3076.172,195.217,-245123.672,333196.592
0.683000,-259.733,-27766.466,-28483.915,-30918.169
0.684000,-328151.655,-348467.350,317157.269,340625.000
0.685000,-381323.242,11.826,1.478,-8804.417
0.686000,3123.903,171764.565,-43889.618,-65744.925
0.687000,-282.335,-29045.916,-36893.606,-25194.931
0.688000,-38250.923,-15023.088,0.000,0.000
0.689000,55468.750,0.000,0.000,0.000
0.690000,5308.056,0.000,0.000,0.000
0.691000,-234957.218,205078.125,0.000,0.000
0.692000,-43884.039,26031.017,0.000,0.000
0.693000,23680.210,-43895.388,-363549.805,0.000
0.694000,-388159.895,378052.282,-181774.902,0.000
0.695000,-82593.393,-386939.240,286377.668,-288159.180
0.696000,-163121.080,-203175.354,209950.447,0.000
0.697000,113239.527,-105519.962,-296820.402,-352343.750
0.698000,-338.554,-44645.262,-53706.455,59213.877
0.699000,-341.415,-46631.336,-54743.767,62332.630
0.700000,-346.136,-48621.273,-55392.456,65154.457
0.701000,-347.614,-50563.860,-55926.657,67744.970
0.702000,-349.712,-52430.820,-56274.223,69969.368
0.703000,-352.001,-54078.150,-56330.872,71800.947
0.704000,-353.289,-55249.405,1.478,-11291.647
0.705000,-354.624,-55784.082,-55962.563,75779.247
0.706000,-353.765,-55630.398,-55798.864,76653.767
0.707000,386125.898,19323.015,-200000.000,-100000.000
0.708000,2734.375,1561.785,368643.904,-348543.930
0.709000,-353.336,-53480.101,-53641.176,77347.660
0.710000,281044.483,49793.863,100299.835,396875.000
0.711000,262207.031,9.155,12.159,-87989.092
0.712000,3123.665,15434.504,174808.884,153410.435
0.713000,-335.932,-46789.598,-46945.620,70896.196
0.714000,-44807.196,68355.131,0.000,2343.750
0.715000,384.521,24.366,-162501.287,-287037.420
0.716000,-317.287,-39857.721,-40009.499,60710.573
0.717000,-159132.051,245775.175,168458.796,146166.992
0.718000,-262963.867,0.000,193750.000,24990.559
0.719000,3123.808,340491.295,171740.723,137692.690
0.720000,-292.587,-32786.846,-32936.096,46256.018
0.721000,-286.865,-31185.102,-31271.410,41535.997
0.722000,-284.386,-29519.367,-29209.185,29983.902
0.723000,-279.140,-27680.731,-26469.517,16726.303
0.724000,-272.846,-25691.843,-23373.842,3782.082
0.725000,-266.361,-23918.390,-21148.920,-8679.962
0.726000,-260.210,-22529.078,-20185.232,-20388.126
0.727000,780.964,-242208.481,-230488.348,-364090.729
0.728000,-200000.000,-252.581,-20635.653,-20157.528
0.729000,-199243.164,97.609,290720.177,-192971.230
0.730000,73.242,-100000.000,399875.498,-9806.919
0.731000,0.000,300094.604,12.159,-62817.717
0.732000,0.000,9.155,387500.000,49984.694
0.733000,0.000,0.000,37509.155,12.159
0.734000,0.000,0.000,9.155,48437.500
0.735000,0.000,0.000,0.000,4698.181
0.736000,-239.944,-20627.260,-20784.903,-30881.882
0.737000,162938.976,95336.914,9.155,12.159
0.738000,24218.750,3123.999,-184463.024,-175088.644
0.739000,-249.195,-23483.849,-23645.401,-30880.499
0.740000,-24369.526,-24534.225,-30880.690,0.000
0.741000,-328125.000,189.209,24.366,-132642.460
0.742000,-263.309,-27674.723,-29245.472,-30924.129
0.743000,-269.175,-27005.434,-31341.887,-30946.589
0.744000,285705.090,72668.457,0.000,193750.000
0.745000,193750.000,24991.131,-150890.541,73872.232
0.746000,-286.674,-29317.188,-37247.419,-21712.637
0.747000,24881.935,62348.890,-34420.109,-43750.000
0.748000,12440.968,31176.567,0.715,-4808.855
0.749000,-307.322,-33668.947,-42641.926,18887.568
0.750000,-312.376,-34995.985,-44131.708,29859.209
0.751000,-11424.589,10013.437,-200000.000,-50000.000
0.752000,21.362,12.159,-84082.651,251183.319
0.753000,9.155,393750.000,24989.653,123703.957
0.754000,0.000,18759.155,12.159,-86743.832
0.755000,0.000,9.155,49218.750,3123.617
0.756000,0.000,0.000,2355.576,1.478
0.757000,0.000,0.000,1.144,5468.750
0.758000,0.000,0.000,0.000,2345.228
0.759000,0.000,0.000,0.000,0.143
0.760000,-292187.500,0.000,0.000,0.000
0.761000,72375.965,0.000,0.000,0.000
0.762000,367880.106,44628.906,0.000,0.000
0.763000,372011.566,-362453.985,0.000,0.000
0.764000,161254.025,116993.332,279968.262,0.000
0.765000,146536.350,-153474.140,-245195.198,-50000.000
0.766000,-90613.651,300340.939,257593.918,-180725.098
0.767000,364055.967,362732.697,-178838.348,0.000
0.768000,-353.813,-52879.333,-53040.600,77115.774
0.769000,-351.429,-52107.668,-52265.406,76504.135
0.770000,-333665.848,159851.074,0.000,-200000.000
0.771000,-200000.000,-340.557,-48029.184,-48185.349
0.772000,-333.881,-46052.933,-46207.190,69996.166
0.773000,6077.671,-15797.901,378388.357,218750.000
0.774000,381250.000,45.776,12.159,-81738.949
0.775000,-314.474,-39840.174,-39989.567,59796.858
0.776000,-310.183,-38483.238,-38634.729,57111.645
0.777000,-37106.466,54162.073,0.334,-200000.000
0.778000,2343.750,3123.808,-250133.848,-397009.420
0.779000,-292.349,-32766.914,-32917.786,45022.297
0.780000,-100485.992,249511.719,-49404.097,-25000.000
0.781000,153173.828,9.155,12.159,-70227.480
0.782000,99966.383,-103180.218,96953.535,399916.458
0.783000,-264.740,-23802.567,-22151.566,-12868.881
0.784000,-170628.786,-191526.413,0.000,0.000
0.785000,-287500.000,0.000,0.000,0.000
0.786000,33624.268,0.000,0.000,0.000
0.787000,-300121.021,-168750.000,0.000,0.000
0.788000,-322110.033,304771.423,0.000,0.000
0.789000,-362578.630,-287620.878,-62500.000,0.000
0.790000,218710.661,-143810.463,-31250.000,0.000
0.791000,-375009.871,-237509.918,64047.384,-393359.375
0.792000,-242.281,-20416.832,-20573.616,-30896.664
0.793000,-239.706,-20700.455,-20858.622,-30887.699
0.794000,-239.897,-21023.846,-21182.775,-30877.399
0.795000,-243.044,-21518.230,-21676.254,-30874.586
0.796000,-246.286,-22232.580,-22392.464,-30875.540
0.797000,-249.434,-23071.623,-23233.604,-30877.876
0.798000,1561.975,-193796.825,-207859.612,89002.180
0.799000,-200000.000,-252.438,-24876.070,-25040.245
0.800000,-258.493,-26182.747,-26272.583,12.159
0.801000,12.159,-67920.351,149279.308,348217.297
0.802000,-270.081,-27130.127,-31997.252,-30956.364
0.803000,-110027.933,-135338.068,-123905.945,1.431
0.804000,-55013.990,-66406.250,3123.856,-193862.772
0.805000,-288.010,-29729.700,-37752.867,-18086.195
0.806000,-293.541,-30691.862,-39198.446,-7929.659
0.807000,-380468.225,-257031.250,9.155,12.159
0.808000,-100000.000,399847.794,382886.505,378425.694
0.809000,-311.708,-35586.119,-44671.106,33712.912
0.810000,-385608.006,118258.715,-230256.653,0.000
0.811000,-325000.000,2343.750,3123.665,-81407.785
0.812000,-338.125,-42262.363,-51613.998,54944.038
0.813000,-339.985,-44212.437,-52975.607,58263.111
0.814000,-223241.282,-271691.895,0.143,-200000.000
0.815000,-200000.000,-351.763,-50193.834,-55382.013
0.816000,-354.385,-52069.473,-55855.989,69358.349
0.817000,-356.054,-53730.917,-55954.266,71288.729
0.818000,-358.200,-54942.608,-55962.563,72932.482
0.819000,-357.628,-55581.379,-55928.469,74322.987
0.820000,-357.246,-55580.091,-55757.570,75472.832
0.821000,780.869,-277397.776,-375054.169,56324.577
0.822000,-200000.000,-359.297,-55002.069,-55169.439
0.823000,-199243.164,97.609,72454.262,129876.089
0.824000,73.242,-100000.000,399822.092,-27031.374
0.825000,0.000,300094.604,12.159,-90808.964
0.826000,0.000,9.155,-12500.000,49977.779
0.827000,0.000,0.000,37509.155,12.159
0.828000,0.000,0.000,9.155,93756.056
0.829000,0.000,0.000,4.578,10.300
0.830000,0.000,0.000,0.000,1.144
0.831000,-337500.000,0.000,0.000,0.000
0.832000,-332.546,-43418.741,-43570.089,66461.372
0.833000,-172676.754,191828.060,237109.375,9.155
0.834000,0.000,-100000.000,399841.547,380341.768
0.835000,-313.616,-37818.241,-37969.065,56027.079
0.836000,-173473.167,-267135.715,359375.000,21.362
0.837000,0.048,-200000.000,-298.452,-33770.180
0.838000,-293.827,-32259.703,-32409.620,43345.976
0.839000,-36902.094,81390.142,63464.594,311126.709
0.840000,-149920.797,-215625.000,11718.750,3123.903
0.841000,12.159,-69617.128,-14075.089,113281.155
0.842000,-267.029,-23543.167,-22691.059,-17264.462
0.843000,-85095.549,64977.598,255529.785,0.715
0.844000,0.715,0.000,0.000,0.000
0.845000,-253.725,-19973.040,-20126.390,-30965.281
0.846000,-252.247,-19723.511,-19879.198,-30945.539
0.847000,-350483.227,12500.000,756.836,97.609
0.848000,1.478,-7971.239,155967.665,150894.070
0.849000,11718.750,3123.999,-206329.823,-34455.442
0.850000,2346.706,0.334,-1982.927,-165497.255
0.851000,0.286,2734.375,1561.975,-203166.151
0.852000,0.000,1172.209,-200000.000,-251.389
0.853000,0.000,0.000,-198486.328,195.217
0.854000,0.000,0.000,146.484,-200000.000
0.855000,0.000,0.000,0.000,-199810.791
0.856000,0.000,0.000,0.000,18.311
0.857000,0.000,0.000,0.000,9.155
0.858000,88171.387,0.000,0.000,0.000
0.859000,44085.693,0.000,0.000,0.000
0.860000,-365484.762,-380419.922,0.000,0.000
0.861000,-347002.792,28004.026,203125.000,0.000
0.862000,354954.481,250486.708,304188.538,0.000
0.863000,337388.659,-240764.475,-162619.495,-140625.000
0.864000,3123.808,-350117.874,-165774.155,-346930.885
0.865000,-302.076,-31167.507,-39683.151,-4088.974
0.866000,-41045.713,5952.644,0.000,2343.750
0.867000,94.604,12.159,-80188.560,-101306.868
0.868000,-318.861,-36158.371,-45360.994,37464.523
0.869000,-82959.604,-42371.368,-35057.926,311108.398
0.870000,-226928.711,0.000,93750.000,0.000
0.871000,3123.665,256081.867,-156453.800,281469.345
0.872000,-344.038,-45009.565,-53449.869,59456.539
0.873000,-122087.622,322119.236,-359375.000,756.836
0.874000,5.722,0.000,0.000,36.621
0.875000,-359.774,-52762.508,-56088.781,70122.290
0.876000,-92810.917,-300513.554,28724.241,19055.176
0.877000,9188.795,-300000.000,-25000.000,99954.605
0.878000,780.869,-338335.562,98382.998,-313207.150
0.879000,-361.538,-55379.486,-55549.622,76729.918
0.880000,235102.272,-107737.017,-39843.750,0.000
0.881000,84861.755,0.000,0.000,0.000
0.882000,287803.364,165625.000,0.000,0.000
0.883000,373608.017,-181540.298,0.000,0.000
0.884000,-325102.425,34524.822,331250.000,0.000
0.885000,-51410.627,-51567.650,75937.176,0.000
0.886000,-25705.338,-25783.825,37968.588,0.000
0.887000,-341.415,-48492.861,-48648.834,72917.366
0.888000,-338.650,-46555.519,-46709.490,70682.716
0.889000,-334.311,-44540.834,-44693.422,68142.176
0.890000,-331.354,-42781.115,-42933.416,65552.998
0.891000,-327.587,-41315.174,-41466.331,63022.327
0.892000,-324.488,-40076.256,-40226.507,60509.443
0.893000,780.916,386680.889,168711.996,69587.755
0.894000,-200000.000,-310.707,-37256.432,-37406.731
0.895000,-199243.164,97.609,167573.738,275288.534
0.896000,-304.413,-34456.062,-34606.886,196875.000
0.897000,196875.000,12495.327,-375490.141,-300492.430
0.898000,-292.158,-29711.008,-29837.847,28887.177
0.899000,-181358.814,-303233.433,181311.321,-306250.000
0.900000,-319531.250,11.444,0.000,0.000
0.901000,-265.121,-22767.830,-21285.248,-21152.353
0.902000,-262.022,-21611.547,-20768.023,-29193.974
0.903000,394852.543,192261.982,-200000.000,-50000.000
0.904000,2929.688,780.964,-111738.205,-102363.348
0.905000,-248.909,-19815.540,-19971.323,-30942.440
0.906000,-359453.297,-231370.831,-221875.000,5468.750
0.907000,45.776,12.159,-62878.752,393749.666
0.908000,-245.810,-20635.605,-20791.292,-30894.947
0.909000,-62781.096,234118.319,193468.761,93603.516
0.910000,-30879.498,0.334,-200000.000,-246.143
0.911000,3123.999,-268839.169,-59464.788,-206370.640
0.912000,-248.480,-23710.966,-23870.420,-30883.837
0.913000,-251.627,-24565.220,-24728.060,-30886.602
0.914000,-256.634,-25742.102,-25905.609,-30891.418
0.915000,-262.213,-27274.370,-27483.034,-30904.531
0.916000,-265.408,-27913.046,-29337.454,-30924.034
0.917000,-268.173,-27296.591,-31391.907,-30950.022
0.918000,-273.561,-27532.625,-33240.891,-30972.481
0.919000,97.609,233102.036,33296.537,9761.810
0.920000,-200000.000,-280.237,-28846.121,-35982.800
0.921000,-199810.791,24.366,-147535.086,877.762
0.922000,18.311,-25000.000,99963.331,-3826.380
0.923000,0.000,75021.362,12.159,-75867.224
0.924000,0.000,9.155,96875.000,12495.232
0.925000,0.000,0.000,9386.444,3.004
0.926000,0.000,0.000,2.289,11718.750
0.927000,0.000,0.000,0.000,2346.706
0.928000,-321.674,-38402.891,-47195.530,46648.884
0.929000,58508.492,29016.113,10.300,1.478
0.930000,5468.750,3123.665,109203.529,190420.914
0.931000,-347.471,-45871.258,-53431.034,60591.364
0.932000,376077.652,-27193.928,-368207.359,0.000
0.933000,-90625.000,45.776,12.159,-90674.639
0.934000,-355.482,-53438.997,-55864.334,70815.992
0.935000,-356.007,-54703.283,-55860.519,72533.798
0.936000,114026.976,-256652.832,0.000,48437.500
0.937000,48437.500,6247.139,-119182.253,24566.412
0.938000,-358.534,-55099.678,-55267.620,76969.528
0.939000,-122088.861,256035.471,-80947.399,-100000.000
0.940000,355615.234,2.861,0.000,0.000
0.941000,-350.237,-52660.465,-52819.681,77098.846
0.942000,-349.140,-51900.482,-52059.174,76463.509
0.943000,46807.241,304721.022,-400000.000,-12500.000
0.944000,10.681,6.056,-43432.999,280578.232
0.945000,4.578,98437.500,6247.377,12141.943
0.946000,0.000,4699.326,1.478,-10566.807
0.947000,0.000,1.144,11718.750,3123.713
0.948000,0.000,0.000,2346.754,0.143
0.949000,0.000,0.000,0.143,2734.375
0.950000,0.000,0.000,0.000,1172.209
0.951000,0.000,0.000,0.000,0.000
0.952000,13476.563,0.000,0.000,0.000
0.953000,50961.685,0.000,0.000,0.000
0.954000,105763.149,-217480.469,0.000,0.000
0.955000,-304086.399,305587.769,-200000.000,0.000
0.956000,76598.644,39783.239,-66491.699,0.000
0.957000,274542.952,-287959.051,-374624.538,-337500.000
0.958000,-262728.548,-143979.549,-187312.269,231250.000
0.959000,-269.270,-25430.775,-24761.248,-1722.670
0.960000,0.143,-1023.340,-90451.097,-87620.592
0.961000,-252.724,-21602.869,-21406.507,-30358.410
0.962000,213659.334,182287.121,66943.359,0.000
0.963000,100000.000,387500.000,49984.598,-101264.000
0.964000,-244.713,-20203.829,-20360.804,-30937.386
0.965000,-241.852,-20241.308,-20397.377,-30923.891
0.966000,158563.566,12500.000,11.444,3.004
0.967000,1.478,-7710.314,135005.140,129926.968
0.968000,-241.280,-21120.071,-21276.331,-30888.557
0.969000,-10799.313,-10879.421,-15440.702,0.000
0.970000,0.000,2343.750,3123.999,-28215.504
0.971000,-247.669,-24022.436,-24183.035,-30888.557
0.972000,-249.863,-24913.836,-25073.814,-30891.895
0.973000,-367273.426,89355.469,9.155,12.159
0.974000,-262.213,-27857.828,-30100.298,-30941.010
0.975000,-269.508,-27423.096,-32126.951,-30961.847
0.976000,-33811.092,-30980.921,0.000,0.048
0.977000,0.000,0.000,0.000,0.000
0.978000,-243066.406,0.000,0.000,0.000
0.979000,97856.188,200000.000,0.000,0.000
0.980000,-391870.260,-202734.375,0.000,0.000
0.981000,398735.189,-274900.913,300000.000,0.000
0.982000,-269855.070,263287.449,71649.170,0.000
0.983000,-328260.279,352956.772,-121782.875,-12500.000
0.984000,-5001.879,223759.413,87374.878,-245568.085
0.985000,-319.767,-37512.970,-46093.750,43364.239
0.986000,-325.537,-39127.445,-47786.951,48105.192
0.987000,-331.497,-40881.586,-49663.067,51755.571
0.988000,-335.646,-42786.551,-51240.492,55232.668
0.989000,-342.131,-44762.373,-52508.879,58543.587
0.990000,399828.911,-22381.210,-26254.463,-370728.207
0.991000,1.478,-11146.641,39990.091,-141561.794
0.992000,-351.620,-50716.257,-54757.309,33626.890
0.993000,12.159,-90894.413,-245569.706,132679.272
0.994000,-355.577,-55149.984,-55905.533,73109.770
0.995000,-180920.553,-189073.086,-16491.699,12.016
0.996000,0.000,2343.750,3123.569,-81466.579
0.997000,-356.388,-55207.968,-55373.764,77197.266
0.998000,-355.673,-54790.449,-54957.104,77597.141
0.999000,132964.230,54687.500,21.362,12.159
1.000000,-200000.000,-349.951,-52529.860,-52690.363
1.001000,-351.381,-51685.524,-51846.313,76174.068
1.002000,-130493.975,-171300.125,18457.031,0.000
1.003000,231250.000,24218.750,3123.665,277940.989
1.004000,-333.595,-45089.340,-45243.359,68869.734
1.005000,-329.018,-43213.129,-43366.528,66267.633
1.006000,399835.491,378393.412,-21682.787,0.143
1.007000,-399999.952,-633.192,-78338.194,-78639.889
1.008000,-310.373,-37640.762,-37792.683,55841.160
1.009000,-305.605,-36114.168,-36265.326,52843.761
1.010000,-299.978,-34778.786,-34928.751,49920.797
1.011000,-297.070,-33444.166,-33593.941,46903.849
1.012000,-290.394,-31931.114,-32078.838,42957.211
1.013000,3123.856,-112618.256,-362618.780,387627.602
1.014000,0.143,-1118.708,-114082.384,-114482.880
1.015000,2929.688,780.964,324192.762,27318.001
1.016000,586.081,-200000.000,-268.316,-24784.136
1.017000,0.000,-199243.164,97.609,264840.889
1.018000,0.000,73.242,-100000.000,399871.826
1.019000,0.000,0.000,300183.105,199935.913
1.020000,0.000,0.000,150000.000,-12500.000
1.021000,0.000,0.000,0.000,37521.362
1.022000,0.000,0.000,0.000,9.155
1.023000,162500.000,0.000,0.000,0.000
1.024000,-244.474,-20115.805,-20272.017,-30920.744
1.025000,378044.987,387379.217,-200000.000,45.776
1.026000,0.143,-200000.000,-245.905,-20900.345
1.027000,-244.713,-21284.628,-21444.368,-30885.696
1.028000,-63037.443,8459.091,-32214.832,94348.145
1.029000,356008.720,375000.000,48437.500,6248.045
1.030000,24.366,-128028.107,328246.307,246459.007
1.031000,-254.917,-25395.870,-25556.421,-30897.474
1.032000,-264161.825,366697.311,351220.703,2.813
1.033000,2.861,0.000,0.000,0.048
1.034000,-269.938,-27594.757,-32748.079,-30970.526
1.035000,-275.564,-28109.407,-34342.813,-30993.700
1.036000,-301903.486,-200000.000,3027.344,390.482
1.037000,12.159,-73950.672,195067.739,-154651.117
1.038000,-296.783,-31484.175,-39617.825,-3488.970
1.039000,399851.608,384257.889,-19808.912,398265.839
1.040000,0.000,189.209,24.366,-158082.151
1.041000,0.000,18.311,-25000.000,99960.899
1.042000,0.000,0.000,75045.776,12.159
1.043000,0.000,0.000,9.155,184375.000
1.044000,0.000,0.000,2343.750,3123.665
1.045000,0.000,0.000,2344.465,-399999.952
1.046000,0.000,0.000,0.048,-396972.656
1.047000,0.000,0.000,0.000,293.016
1.048000,0.000,0.000,0.000,0.000
1.049000,-78906.250,0.000,0.000,0.000
1.050000,217019.033,0.000,0.000,0.000
1.051000,41846.752,382104.492,0.000,0.000
1.052000,-76751.423,-197748.566,75000.000,0.000
1.053000,105700.254,33276.892,-180902.100,0.000
1.054000,-390843.010,-28343.773,275292.444,-315625.000
1.055000,-5751.133,-92760.563,-95499.372,-385232.544
1.056000,195.217,118931.770,-29310.417,95721.960
1.057000,-359.488,-54641.199,-54804.897,77610.731
1.058000,-263307.762,-7384.014,-141406.250,11.826
1.059000,11.826,1.478,-11236.715,-78444.052
1.060000,-350.714,-51572.895,-51731.396,75851.631
1.061000,-347.185,-50193.405,-50351.477,74552.774
1.062000,36371.040,-400000.000,2734.375,1561.832
1.063000,12.159,-84754.133,-128687.239,-167845.678
1.064000,-325.203,-42461.824,-42613.363,65371.513
1.065000,-79736.996,-119066.429,83837.891,9.155
1.066000,0.000,24218.750,3123.760,306100.178
1.067000,-306.559,-36805.391,-36955.070,54787.064
1.068000,-302.362,-35376.644,-35524.893,51819.324
1.069000,159565.926,203125.000,378.418,48.780
1.070000,0.143,-1146.173,-124466.753,-125011.444
1.071000,-283.289,-29280.519,-29155.827,27975.941
1.072000,174669.981,-346423.149,-178063.965,0.000
1.073000,325031.900,337500.000,0.000,0.000
1.074000,-395831.394,284545.898,0.000,0.000
1.075000,-65707.111,190540.028,-378125.000,0.000
1.076000,-344685.411,-331049.395,328990.936,0.000
1.077000,349918.890,-343830.442,356129.026,140625.000
1.078000,-497.007,-40497.637,-40762.472,-61962.795
1.079000,-248.432,-19888.449,-20045.471,-30961.704
1.080000,-246.525,-19816.160,-19973.087,-30942.631
1.081000,-246.143,-19878.817,-20034.790,-30925.608
1.082000,-245.905,-19985.390,-20141.697,-30912.256
1.083000,-244.856,-20187.378,-20347.214,-30901.289
1.084000,3123.999,-59455.061,62419.319,3004.313
1.085000,0.334,-1947.832,-166657.686,-167933.702
1.086000,2734.375,1562.023,7770.872,90583.038
1.087000,1172.209,-200000.000,-246.811,-21962.643
1.088000,-246.096,-22781.229,-22943.974,-28906.250
1.089000,45.776,12.159,-64502.335,108556.747
1.090000,-253.391,-25822.830,-25982.475,-30901.003
1.091000,-66089.296,195006.895,142736.340,86218.262
1.092000,81726.074,0.000,48437.500,6247.902
1.093000,3123.903,-368858.194,24869.919,168628.979
1.094000,-277.138,-28274.632,-34824.324,-30994.272
1.095000,271734.095,253011.179,-312500.000,756.836
1.096000,2.956,0.334,-2342.653,-245620.775
1.097000,-297.165,-31748.819,-40385.294,117.254
1.098000,-77466.345,375573.063,-271838.236,183679.199
1.099000,-197459.126,200000.000,-25000.000,99960.947
1.100000,390.434,-189471.197,362868.166,-351542.425
1.101000,-321.341,-38542.747,-47613.478,46910.667
1.102000,242139.244,-304638.052,278906.250,11.444
1.103000,11.444,3.004,-21634.102,377572.393
1.104000,-340.223,-46099.901,-53554.869,60774.326
1.105000,-347.471,-48097.849,-54450.369,63768.625
1.106000,-350.523,-50074.911,-55052.805,66465.616
1.107000,3123.617,231046.915,227907.896,-187230.873
1.108000,-399999.952,-709.200,-107297.850,-111586.666
1.109000,-396972.656,390.434,282785.702,367550.850
1.110000,293.016,-200000.000,-355.673,-55480.671
1.111000,0.000,-199621.582,48.780,-367142.105
1.112000,0.000,36.621,-50000.000,199909.878
1.113000,0.000,0.000,150045.776,12.159
1.114000,0.000,0.000,9.155,193750.000
1.115000,0.000,0.000,5468.750,3123.569
1.116000,0.000,0.000,2345.228,0.143
1.117000,0.000,0.000,0.143,2929.688
1.118000,0.000,0.000,0.000,586.081
1.119000,0.000,0.000,0.000,0.000
1.120000,-342.369,-49469.900,-49627.590,73930.454
1.121000,-256436.825,-90343.904,-146875.000,2343.750
1.122000,21.362,12.159,-84900.570,35289.812
1.123000,-327.349,-41970.348,-42120.790,64432.430
1.124000,-81958.628,17931.461,-20824.289,-153369.141
1.125000,59382.200,0.143,-200000.000,-310.516
1.126000,3123.808,68608.284,-75142.288,-334165.335
1.127000,-300.407,-34926.128,-35075.378,50742.865
1.128000,-125131.941,-356063.414,-168750.000,189.209
1.129000,9.155,12.159,-73889.637,188732.433
1.130000,-281.811,-28697.348,-28489.351,23110.628
1.131000,-1100.397,-107316.256,-102565.002,40466.309
1.132000,-10443.687,0.000,2343.750,3123.951
1.133000,24.366,-131909.895,-293506.527,166283.369
1.134000,-254.917,-21534.252,-21332.264,-30508.757
1.135000,59955.788,336320.543,246093.750,9.155
1.136000,0.000,11718.750,3123.999,-150078.773
1.137000,0.000,2349.663,0.715,-3914.690
1.138000,0.000,0.572,2343.750,3124.046
1.139000,0.000,0.000,2344.465,-399999.952
1.140000,0.000,0.000,0.048,-396972.656
1.141000,0.000,0.000,0.000,293.016
1.142000,0.000,0.000,0.000,0.000
1.143000,371484.375,0.000,0.000,0.000
1.144000,192279.387,200000.000,0.000,0.000
1.145000,-175000.477,93676.758,0.000,0.000
1.146000,312499.762,46838.379,0.000,0.000
1.147000,116570.854,96062.994,46014.404,0.000
1.148000,58285.427,48031.473,-376992.798,0.000
1.149000,-4103.136,378223.372,375619.459,305476.379
1.150000,-259.113,-27852.726,-28227.663,-30921.650
1.151000,-263.691,-27879.333,-30214.405,-30940.628
1.152000,-781.250,3123.903,343640.900,146742.821
1.153000,-278.759,-28605.986,-35055.447,-30859.184
1.154000,-375229.931,343467.903,-162707.281,62500.000
1.155000,-132812.500,9.155,12.159,-75366.735
1.156000,99962.807,95946.550,-205001.259,300474.072
1.157000,-300.980,-33659.410,-41144.896,13709.736
1.158000,-339147.186,194538.498,0.000,2343.750
1.159000,2929.688,780.916,-372693.205,46830.606
1.160000,-324.440,-39462.757,-47181.702,48319.769
1.161000,-292988.920,-141430.235,-71849.632,59765.625
1.162000,-205932.617,0.000,-200000.000,-339.699
1.163000,24989.271,23529.482,-226662.588,-298065.662
1.164000,-346.375,-49007.511,-54151.964,64777.374
1.165000,284160.519,306513.262,293750.000,11718.750
1.166000,45.776,12.159,-91004.276,-263782.597
1.167000,-356.531,-55069.685,-55632.830,73188.925
1.168000,-91590.214,224779.415,173121.214,-115979.004
1.169000,-356682.777,-55658.913,-206250.000,0.000
1.170000,-162066.793,-167469.645,49560.547,0.000
1.171000,-225214.195,271660.137,-193448.353,-331250.000
1.172000,-1414.156,-217710.352,-218364.906,310433.578
1.173000,-351.477,-53846.788,-54009.295,77680.159
1.174000,-352.335,-53125.095,-53286.123,77416.945
1.175000,-349.522,-52265.024,-52423.477,76826.572
1.176000,-348.043,-51515.293,-51675.177,76121.712
1.177000,-344.610,-50334.311,-50492.573,74970.436
1.178000,3123.665,71684.408,274808.788,372161.341
1.179000,1561.832,35842.180,-262595.606,186080.647
1.180000,2343.750,3123.665,-56425.238,-50175.810
1.181000,2345.181,1561.832,371787.357,-25087.929
1.182000,1171.875,3027.344,390.434,-257832.766
1.183000,0.000,293.112,-200000.000,-318.718
1.184000,-316.095,-38913.584,-39065.790,58450.270
1.185000,-200000.000,-304.890,-35865.831,-36014.414
1.186000,-299.644,-34556.866,-34706.211,49702.311
1.187000,336980.772,-175521.612,-211770.916,350000.000
1.188000,267919.922,9.155,12.159,-72827.625
1.189000,99964.857,96464.300,-103538.465,-97691.298
1.190000,-272.942,-26334.524,-25602.198,5526.543
1.191000,-183021.975,-55871.582,0.000,2343.750
1.192000,2929.688,780.964,-260177.708,-29708.099
1.193000,-253.868,-21049.976,-20855.236,-30879.354
1.194000,-124238.777,278104.830,-235186.529,285156.250
1.195000,72668.457,0.000,-200000.000,-250.053
1.196000,24992.180,-225625.229,99369.907,74033.260
1.197000,-245.142,-20107.508,-20265.198,-30918.837
1.198000,278045.034,243629.265,218750.000,11718.750
1.199000,45.776,12.159,-62305.021,255089.998
1.200000,-246.525,-21276.236,-21437.454,-30887.365
1.201000,-246.000,-21830.273,-21989.822,-30882.168
1.202000,-247.002,-22579.479,-22739.363,-30882.645
1.203000,-248.146,-23486.090,-23648.024,-30886.364
1.204000,97.609,287301.683,-203713.942,266304.779
1.205000,-100000.000,399872.637,387300.777,387221.479
1.206000,300094.604,12.159,-65991.640,316515.684
1.207000,9.155,387500.000,49983.406,-301758.099
1.208000,0.000,37509.155,12.159,-69348.574
1.209000,0.000,9.155,93756.056,-34674.311
1.210000,0.000,4.578,11.826,1.478
1.211000,0.000,0.000,1.144,11718.750
1.212000,0.000,0.000,0.000,2346.754
1.213000,0.000,0.000,0.000,0.143
1.214000,376562.500,0.000,0.000,0.000
1.215000,-2693.367,0.000,0.000,0.000
1.216000,-306.416,-33999.777,-42060.089,17423.439
1.217000,-208830.357,189136.934,-192929.745,-400000.000
1.218000,200000.000,2929.688,780.916,343712.616
1.219000,-328.159,-39942.122,-48449.802,49646.139
1.220000,-331.926,-41767.693,-50275.803,53248.310
1.221000,369849.491,100622.559,4.578,6.056
1.222000,24218.750,3123.617,-297061.348,-384585.619
1.223000,-351.524,-49683.762,-54607.964,65756.798
1.224000,-51595.068,-55232.096,68276.358,0.000
1.225000,318750.000,189.209,24.366,-181984.091
1.226000,-353.813,-55276.918,-55644.989,73710.155
1.227000,-355.053,-55342.960,-55521.059,74984.074
1.228000,232032.394,257800.293,0.000,193750.000
1.229000,193750.000,24988.747,-251711.464,223283.339
1.230000,-355.577,-54306.364,-54466.820,77671.766
1.231000,-90834.665,290414.715,356553.221,-65625.000
1.232000,260742.188,0.000,11718.750,3123.617
1.233000,0.000,0.000,2349.758,0.334
1.234000,0.000,0.000,0.286,2343.750
1.235000,0.000,0.000,0.000,2344.418
1.236000,0.000,0.000,0.000,0.000
1.237000,50781.250,0.000,0.000,0.000
1.238000,67748.022,0.000,0.000,0.000
1.239000,-372261.667,346044.922,0.000,0.000
1.240000,189728.451,215663.671,0.000,0.000
1.241000,236486.197,197828.054,195922.852,0.000
1.242000,398802.900,-51201.820,151795.816,175000.000
1.243000,-39154.339,91448.689,72217.178,-217785.645
1.244000,-299.692,-35346.079,-35495.520,51588.488
1.245000,-296.211,-34006.882,-34155.703,48650.885
1.246000,-290.155,-32548.189,-32699.823,45488.739
1.247000,-283.194,-30999.851,-31138.277,39520.550
1.248000,-278.711,-25781.250,3123.903,-293857.384
1.249000,-268.459,-25499.630,-23789.597,937.700
1.250000,-263.023,-23866.129,-21861.553,-11384.535
1.251000,-325088.787,-384375.000,94.604,12.159
1.252000,-399999.952,-500.822,-41473.246,-41273.642
1.253000,-245.619,-20208.216,-20353.079,-30981.588
1.254000,-273962.736,-313696.766,74545.288,12.159
1.255000,-12500.000,49984.932,248758.698,-151251.125
1.256000,-239.134,-19974.566,-20132.160,-30916.786
1.257000,-161642.504,-162895.632,-247233.963,0.000
1.258000,50000.000,2929.688,781.012,59354.734
1.259000,-239.801,-21214.056,-21373.558,-30884.790
1.260000,-240.135,-21854.258,-22015.142,-30882.454
1.261000,-246973.133,93859.863,0.000,-100000.000
1.262000,-100000.000,399877.787,387753.487,387672.949
1.263000,-248.051,-25788.641,-25950.623,-30903.339
1.264000,287392.855,-368857.956,384254.217,175000.000
1.265000,-371692.371,80676.270,0.000,0.000
1.266000,299504.805,137016.249,75000.000,0.000
1.267000,149752.378,-331491.899,-362500.000,0.000
1.268000,-271985.722,-334511.948,396753.931,303125.000
1.269000,-135992.861,232744.026,198376.942,-248437.500
1.270000,-283.098,-29946.375,-37357.140,-19337.368
1.271000,-286.436,-30869.198,-38851.738,-9191.608
1.272000,-291.872,-31926.346,-40293.741,997.066
1.273000,-295.734,-33096.790,-41592.550,10952.473
1.274000,-298.500,-34357.357,-42886.353,21293.402
1.275000,3123.808,81110.382,-253297.997,318876.219
1.276000,1.478,-9938.145,-391244.602,136087.084
1.277000,5468.750,3123.760,177973.318,-78310.156
1.278000,2345.228,0.143,-1289.988,-162137.651
1.279000,0.143,2343.798,-645.018,-81068.850
1.280000,-332.642,-44370.508,-52273.035,57835.007
1.281000,11.826,1.478,-10962.009,52204.752
1.282000,-345.993,-50354.528,-54856.730,66707.516
1.283000,-347.662,-52230.310,-55336.714,69085.979
1.284000,35531.521,0.000,2343.750,3123.617
1.285000,12.159,-89905.643,197557.735,133594.847
1.286000,-351.954,-55529.308,-55703.688,75366.879
1.287000,232384.396,188428.879,335144.043,9.155
1.288000,0.000,49218.750,3123.617,174785.852
1.289000,-349.379,-54264.879,-54427.814,77688.456
1.290000,-345.039,-53560.495,-53723.335,77533.150
1.291000,153425.789,-103125.000,378.418,48.780
1.292000,0.334,-2710.009,393305.540,392054.749
1.293000,-333.595,-49323.320,-49479.914,73841.476
1.294000,-153882.599,-193175.220,-10229.492,0.000
1.295000,-400000.000,-50000.000,0.000,0.000
1.296000,-312.376,-41724.205,-41874.838,64270.067
1.297000,-304.890,-40290.594,-40440.845,61748.648
1.298000,3123.808,143597.317,190471.697,-96643.734
1.299000,1.478,-9584.141,394290.066,389465.427
1.300000,5468.750,3123.808,-190766.239,-325141.811
1.301000,2346.754,0.143,-1166.964,-139144.754
1.302000,0.143,2734.375,1561.928,259309.578
1.303000,0.000,1172.209,-200000.000,-278.807
1.304000,0.000,0.000,-198486.328,195.217
1.305000,0.000,0.000,146.484,-200000.000
1.306000,0.000,0.000,0.000,-199810.791
1.307000,0.000,0.000,0.000,18.311
1.308000,-300000.000,0.000,0.000,0.000
1.309000,1708.984,0.000,0.000,0.000
1.310000,-87906.408,137500.000,0.000,0.000
1.311000,279379.129,-359414.673,0.000,0.000
1.312000,-239.182,-19991.255,-20144.320,-30973.291
1.313000,-60254.240,-234167.814,-274036.121,75231.934
1.314000,80371.094,0.000,24218.750,3124.094
1.315000,1562.023,-395351.267,364023.399,-34435.415
1.316000,-232.744,-20126.438,-20284.891,-30902.386
1.317000,128044.605,-18870.687,287500.000,378.418
1.318000,1.478,0.143,-944.757,-85150.003
1.319000,-236.988,-22021.627,-22182.941,-30882.835
1.320000,-61145.401,-274792.862,-316077.137,93371.582
1.321000,-1930.475,0.000,387500.000,49984.694
1.322000,195.217,-213287.735,-247662.783,-111726.332
1.323000,-251.389,-27886.963,-28295.517,-30925.369
1.324000,-30941.057,0.000,3027.344,390.482
1.325000,3.004,-16955.709,-194079.733,252252.054
1.326000,-268.316,-28715.181,-34853.029,-30792.570
1.327000,-362354.088,-369421.816,-217419.434,0.000
1.328000,-400000.000,366.211,0.000,0.000
1.329000,200000.000,0.000,-100000.000,0.000
1.330000,-300000.000,0.000,21.362,12.159
1.331000,0.000,0.000,9.155,196875.000
1.332000,0.000,0.000,0.000,9386.444
1.333000,0.000,0.000,0.000,2.289
1.334000,356250.000,0.000,0.000,0.000
1.335000,388904.953,0.000,0.000,0.000
1.336000,190829.086,296875.000,0.000,0.000
1.337000,-49937.105,55709.028,0.000,0.000
1.338000,-314087.534,-24580.574,288281.250,0.000
1.339000,-47496.748,-52141.476,62145.472,0.000
1.340000,-347854.614,-298636.055,215189.505,183203.125
1.341000,-343.037,-51343.298,-53549.290,67613.268
1.342000,-343.752,-52771.139,-53946.972,69839.668
1.343000,-346.184,-53739.166,-54175.568,71698.666
1.344000,-12.207,48.780,-357376.385,-277102.947
1.345000,-347.662,-54026.127,-54193.783,75711.250
1.346000,89446.497,-200983.191,261630.440,84570.313
1.347000,-355276.775,-100491.428,0.334,-2750.063
1.348000,3123.617,-222082.758,-12708.378,-93446.541
1.349000,-340.986,-52513.075,-52675.343,77372.789
1.350000,-6492.758,9599.161,-200000.000,3027.344
1.351000,9.155,12.159,-86182.451,-12732.744
1.352000,-331.640,-48553.944,-48709.869,73188.448
1.353000,-42169.571,-382361.221,397882.605,289971.924
1.354000,384439.087,0.000,5468.750,3123.760
1.355000,0.000,0.000,1171.875,1561.880
1.356000,-307.083,-40653.086,-40805.674,60859.346
1.357000,209220.076,-143522.453,371875.000,94.604
1.358000,0.334,-200000.000,-295.258,-36488.390
1.359000,-291.395,-35229.778,-35385.466,49513.245
1.360000,-73047.400,122960.901,83338.070,-109130.859
1.361000,-36523.724,-338519.573,-358330.965,345434.570
1.362000,384793.329,384725.189,15405.655,-400000.000
1.363000,-69312.000,-106653.309,-139611.578,-310485.840
1.364000,-263.929,-26643.848,-26730.108,4655.123
1.365000,-257.921,-24895.525,-24730.921,-7920.265
1.366000,-251.245,-23498.726,-23206.282,-19630.623
1.367000,-246.239,-22353.649,-22293.758,-28495.073
1.368000,-243.521,-21583.128,-21720.934,-30916.452
1.369000,-239.134,-21075.201,-21231.604,-30986.977
1.370000,24.366,-121289.730,-174487.972,-253589.821
1.371000,-50000.000,199941.635,194890.213,394851.732
1.372000,150045.776,12.159,-58948.088,381786.776
1.373000,9.155,193750.000,24992.752,274361.515
1.374000,0.000,18760.681,6.056,-29962.349
1.375000,0.000,4.578,24218.750,3124.046
1.376000,-231.838,-21218.872,-21378.231,-30894.518
1.377000,-237109.375,9.155,12.159,-60400.772
1.378000,399881.840,388526.535,388445.854,-15443.468
1.379000,-239.468,-23806.190,-23965.931,-30890.512
1.380000,14733.744,-377081.299,0.000,5468.750
1.381000,5468.750,3123.999,-59481.144,303018.188
1.382000,-251.293,-28281.450,-29055.119,-30933.380
1.383000,-6358.767,-346996.021,28004.074,250000.000
1.384000,70300.293,0.334,0.000,0.000
1.385000,199932.098,-207284.260,391124.201,192494.202
1.386000,-274.706,-29998.398,-36473.274,-22397.327
1.387000,180955.124,-100095.129,156250.000,48437.500
1.388000,384.521,24.366,-147803.783,-157740.498
1.389000,-289.869,-34342.146,-41777.658,18174.076
1.390000,193940.926,-244829.512,310159.779,-394628.906
1.391000,315784.073,3.004,0.143,-1219.416
1.392000,3123.760,365467.119,-181436.968,-31055.069
1.393000,-320.387,-42256.403,-49541.044,53465.414
1.394000,-328.732,-44238.424,-50878.954,56876.564
1.395000,3123.665,-131430.721,-375203.133,-287265.158
1.396000,-399999.952,-667.048,-96567.774,-105858.994
1.397000,-397265.625,-333.548,-48283.911,-52929.497
1.398000,-199999.952,-200000.000,-342.369,-52070.427
1.399000,0.000,-199267.578,399828.815,373964.787
1.400000,0.000,300000.000,-50000.000,199913.740
1.401000,0.000,0.000,150094.604,12.159
1.402000,0.000,0.000,9.155,393750.000
1.403000,0.000,0.000,0.000,18759.155
1.404000,0.000,0.000,0.000,9.155
1.405000,393750.000,0.000,0.000,0.000
1.406000,77081.299,0.000,0.000,0.000
1.407000,-152821.684,-3125.000,0.000,0.000
1.408000,-342.369,-52306.652,-52467.108,77171.993
1.409000,290423.536,52922.869,-74701.023,-96875.000
1.410000,-338671.875,5.913,0.715,-5301.714
1.411000,-328.064,-47919.703,-48074.055,72456.980
1.412000,-324.726,-46067.333,-46221.018,70147.324
1.413000,-11080.170,-383109.140,-400000.000,-50000.000
1.414000,2343.750,0.000,0.000,75000.000
1.415000,-304.937,-40061.951,-40213.394,59948.492
1.416000,234223.509,-287652.063,228348.732,259375.000
1.417000,312207.031,10.681,6.056,-37280.560
1.418000,3123.856,331115.246,87364.626,-177935.696
1.419000,-281.858,-32954.788,-33105.707,45279.884
1.420000,-31455.851,38882.256,0.000,2343.750
1.421000,189.209,24.366,-136328.983,221703.243
1.422000,-260.305,-25626.278,-25069.427,126.600
1.423000,-64282.608,270043.564,-165539.742,86083.984
1.424000,-391528.320,0.000,9.155,12.159
1.425000,0.000,0.000,9.155,98437.500
1.426000,0.000,0.000,0.000,4698.944
1.427000,0.000,0.000,0.000,2.289
1.428000,-393750.000,0.000,0.000,0.000
1.429000,-247566.605,0.000,0.000,0.000
1.430000,312439.585,68750.000,0.000,0.000
1.431000,-20434.666,-30917.645,0.000,0.000
1.432000,-186137.915,-42585.707,-190820.313,0.000
1.433000,-20834.541,-20995.188,-30900.288,0.000
1.434000,-118286.800,374315.739,291649.437,183325.195
1.435000,-233.698,-21629.190,-21789.885,-30888.557
1.436000,-233.841,-22285.700,-22445.250,-30885.267
1.437000,-234.365,-23119.020,-23279.858,-30882.883
1.438000,-240.326,-23994.780,-24153.709,-30889.606
1.439000,-243.759,-24846.888,-25008.392,-30894.613
1.440000,-245.428,-25781.250,3123.999,-234483.004
1.441000,-255.871,-28345.442,-29668.379,-30930.090
1.442000,-261.736,-27819.204,-31637.859,-30959.702
1.443000,277172.375,68725.586,9.155,12.159
1.444000,48437.500,6247.807,-230.551,-131529.951
1.445000,-279.951,-30349.207,-37056.637,-18606.758
1.446000,-31286.430,-38526.583,-8496.952,0.000
1.447000,-356250.000,769.043,48.780,-301711.035
1.448000,-299.025,-34826.803,-42495.108,22115.421
1.449000,-304.508,-36184.835,-43995.142,33161.354
1.450000,334595.346,-344226.074,0.000,-50000.000
1.451000,-12500.000,49979.734,347440.624,146923.971
1.452000,-328.827,-42816.210,-50940.371,54757.404
1.453000,-25174.904,171670.532,-109148.026,243750.000
1.454000,58593.750,2929.688,780.916,57764.816
1.455000,-344.563,-50765.848,-54835.415,66915.703
1.456000,-348.139,-52591.896,-55251.312,69266.748
1.457000,-89637.089,-224463.749,231067.944,-168725.586
1.458000,-351.381,-54867.554,-55333.853,72869.587
1.459000,-353.193,-55153.370,-55339.527,74278.259
1.460000,-352.001,-55059.004,-55228.949,75440.788
1.461000,-351.667,-54915.762,-55084.753,76387.882
1.462000,-351.667,-54742.193,-54908.371,77106.953
1.463000,-348.282,-54390.764,-54554.701,77556.849
1.464000,-348.043,-53884.125,-54046.679,77703.762
1.465000,-346.422,-53206.444,-53368.425,77516.508
1.466000,3123.617,-272079.563,52919.769,-165324.306
1.467000,0.715,-5470.371,-26061.344,-28637.648
1.468000,5468.750,3123.665,118552.303,87301.683
1.469000,2345.133,-399999.952,-675.344,-98171.186
1.470000,0.048,-397070.313,780.916,135110.044
1.471000,0.000,586.081,-200000.000,-327.539
1.472000,-324.059,-43358.326,-43511.963,66648.006
1.473000,-196875.000,2734.375,1561.880,93671.179
1.474000,-308.037,-39199.114,-39349.318,59020.901
1.475000,-304.270,-37765.789,-37915.945,56244.755
1.476000,281018.877,35852.051,0.048,-200000.000
1.477000,-200000.000,-290.918,-33601.713,-33755.589
1.478000,-287.485,-32071.781,-32221.174,43740.988
1.479000,-131368.542,-284494.019,231385.088,-375000.000
1.480000,-384375.000,94.604,12.159,-69690.371
1.481000,-266.123,-24822.044,-23000.669,-4399.014
1.482000,-257.683,-23347.425,-21688.080,-16370.773
1.483000,-42127.180,-53212.833,0.715,-399999.952
1.484000,2343.750,3124.046,12419.558,174919.176
1.485000,-242.472,-20109.272,-20264.912,-30974.674
1.486000,-25624.084,-350628.948,49032.688,175000.000
1.487000,387187.958,224691.772,12.159,-61194.181
1.488000,199940.538,394917.202,-205121.851,192271.519
1.489000,3124.046,-121955.681,-56331.253,49879.265
1.490000,0.143,-945.711,-83863.878,-84498.262
1.491000,2734.375,1562.023,218708.229,-87542.057
1.492000,1172.209,-200000.000,-240.088,-21921.635
1.493000,0.000,-198486.328,195.217,-183989.906
1.494000,0.000,146.484,-200000.000,-241.470
1.495000,0.000,0.000,-199810.791,24.366
1.496000,0.000,0.000,18.311,-25000.000
1.497000,0.000,0.000,0.000,75021.362
1.498000,0.000,0.000,0.000,9.155
1.499000,350000.000,0.000,0.000,0.000
1.500000,-225000.000,0.000,0.000,0.000
1.501000,315503.979,-228125.000,0.000,0.000
1.502000,-242248.011,285937.500,0.000,0.000
1.503000,271806.192,-357872.486,-384375.000,0.000
1.504000,-284.910,-30712.128,-37404.633,-14940.929
1.505000,-288.820,-31713.772,-38856.840,-4764.318
1.506000,93770.838,371875.000,85.449,0.000
1.507000,12.159,-77087.975,-241797.543,216492.081
1.508000,-305.891,-36719.275,-44415.712,36858.845
1.509000,-76470.804,-91979.218,89256.763,0.715
1.510000,-38235.426,-44531.250,3123.713,-243912.792
1.511000,-327.110,-43577.671,-51172.018,55968.904
1.512000,-333.309,-45566.654,-52372.217,59238.815
1.513000,245808.363,-283105.469,9.155,12.159
1.514000,-125000.000,99956.846,393559.837,193162.107
1.515000,-348.330,-53176.403,-55110.550,70004.940
1.516000,-69172.001,-83010.817,349397.278,0.000
1.517000,81250.000,2734.375,1561.785,-231357.384
1.518000,-353.098,-54847.097,-55014.706,75805.807
1.519000,-352.430,-54700.422,-54865.646,76665.831
1.520000,-382835.770,-212023.926,0.000,11.826
1.521000,0.000,0.000,0.000,1.144
1.522000,253125.000,0.000,0.000,0.000
1.523000,-181190.109,0.000,0.000,0.000
1.524000,242337.370,-315625.000,0.000,0.000
1.525000,-51337.099,76005.697,0.000,0.000
1.526000,57604.933,219158.840,-115234.375,0.000
1.527000,-48409.891,-48565.865,73027.897,0.000
1.528000,-169825.649,162083.530,81300.974,276586.914
1.529000,-326.872,-44554.186,-44707.632,68309.116
1.530000,-319.481,-42784.691,-42936.850,65721.083
1.531000,-317.860,-41259.527,-41411.018,63166.618
1.532000,-314.331,-40042.686,-40191.412,60659.456
1.533000,-303.745,-38828.707,-38979.292,58060.694
1.534000,-302.029,-37308.788,-37460.375,55186.462
1.535000,-298.786,-35849.333,-36000.204,52218.342
1.536000,-294.256,-35156.250,3123.856,143620.920
1.537000,-283.480,-31416.988,-31564.188,41445.923
1.538000,-278.664,-29748.392,-29854.631,29815.197
1.539000,293814.898,-112500.000,45.776,12.159
1.540000,-200000.000,-258.732,-24091.053,-21809.626
1.541000,-252.914,-22650.337,-20673.752,-20464.516
1.542000,105822.420,-356042.957,-203259.277,0.000
1.543000,218750.000,48437.500,6248.093,231093.073
1.544000,-238.276,-19689.083,-19842.958,-30967.712
1.545000,-237.942,-19598.913,-19753.027,-30949.450
1.546000,399881.029,390200.520,-9875.727,0.143
1.547000,0.143,-932.741,-80265.665,-80902.338
1.548000,-232.410,-20385.218,-20545.197,-30900.192
1.549000,348706.102,48696.089,-101930.809,350000.000
1.550000,350000.000,3076.172,195.217,-159966.326
1.551000,-239.134,-22678.852,-22838.449,-30887.890
1.552000,-241.232,-23600.054,-23759.174,-30890.656
1.553000,256154.490,124903.870,56129.313,281250.000
1.554000,-976.610,-102419.519,-103062.487,-123596.001
1.555000,-252.056,-27158.451,-27332.735,-30919.170
1.556000,-256.300,-28284.836,-29162.264,-30934.143
1.557000,-260.592,-27772.379,-31143.284,-30952.311
1.558000,-262.070,-27864.742,-32957.649,-30976.582
1.559000,-264.168,-28435.326,-34403.896,-30998.755
1.560000,3123.903,-134488.964,-50139.093,128009.129
1.561000,0.715,-4417.467,320104.170,212097.120
1.562000,2343.750,3123.856,-53245.783,-128274.059
1.563000,2344.465,-399999.952,-572.348,-63922.739
1.564000,0.048,-396972.656,390.482,23811.913
1.565000,0.000,293.016,-200000.000,-297.642
1.566000,0.000,0.000,-199267.578,399851.179
1.567000,0.000,0.000,300000.000,-50000.000
1.568000,-313.044,-38654.804,-46856.260,46389.771
1.569000,318946.075,-100000.000,24218.750,3123.713
1.570000,24.366,-169166.422,-190895.176,-177171.135
1.571000,-335.932,-46107.054,-53107.119,60382.032
1.572000,329000.568,-132515.669,127246.094,1.478
1.573000,1.478,0.143,-1380.205,-208015.680
1.574000,-347.424,-53607.750,-55391.598,70666.361
1.575000,-348.854,-54696.798,-55472.183,72399.282
1.576000,-295383.072,350000.000,1513.672,195.217
1.577000,12.159,-89099.979,308751.583,265638.351
1.578000,-348.186,-54822.779,-54990.005,76880.264
1.579000,-143814.230,-149015.665,77413.940,11.826
1.580000,0.000,2343.750,3123.617,-300208.569
1.581000,-343.084,-52567.339,-52726.507,77107.239
1.582000,-343.418,-51797.485,-51954.699,76470.041
1.583000,132960.129,48437.500,45.776,12.159
1.584000,-200000.000,-332.642,-47813.368,-47969.151
1.585000,-196972.656,390.434,-269553.661,-114866.209
1.586000,293.016,-200000.000,-322.151,-43806.267
1.587000,0.000,-199621.582,48.780,-322707.653
1.588000,0.000,36.621,-50000.000,199921.989
1.589000,0.000,0.000,150045.776,12.159
1.590000,0.000,0.000,9.155,193750.000
1.591000,0.000,0.000,0.000,18760.681
1.592000,0.000,0.000,0.000,4.578
1.593000,209375.000,0.000,0.000,0.000
1.594000,-28808.594,0.000,0.000,0.000
1.595000,315800.619,-206250.000,0.000,0.000
1.596000,157900.286,-103125.000,0.000,0.000
1.597000,218735.790,237512.159,-288281.250,0.000
1.598000,-27153.111,-26397.038,11945.772,0.000
1.599000,-272267.199,-187257.290,262060.452,-88134.766
1.600000,3123.999,112413.216,-131329.870,281155.634
1.601000,-250.864,-21207.380,-20341.730,-30204.391
1.602000,389791.393,-15493.870,0.000,2734.375
1.603000,21.362,12.159,-62073.088,-269201.994
1.604000,-240.898,-19763.517,-19917.250,-30943.823
1.605000,-196953.249,-159495.831,-293750.000,45.776
1.606000,9.155,12.159,-61413.908,369115.877
1.607000,-240.183,-20768.929,-20926.094,-30897.188
1.608000,-240.564,-21093.607,-21253.872,-30888.510
1.609000,-30885.792,0.000,2343.750,3124.046
1.610000,12.159,-62598.038,-299109.268,-340466.785
1.611000,-248.003,-23914.385,-24076.176,-30891.848
1.612000,179783.630,16941.452,364062.500,9.155
1.613000,0.000,-12500.000,49983.788,348268.890
1.614000,-262.976,-28134.394,-29847.908,-30942.154
1.615000,-2149.630,-220967.531,-254528.093,-247714.615
1.616000,-30987.978,0.000,0.000,193750.000
1.617000,0.000,0.000,0.000,18760.681
1.618000,0.000,0.000,0.000,4.578
1.619000,193750.000,0.000,0.000,0.000
1.620000,-122384.644,0.000,0.000,0.000
1.621000,-231240.034,328125.000,0.000,0.000
1.622000,-82372.761,24924.850,0.000,0.000
1.623000,-41186.380,12462.425,0.000,0.000
1.624000,-36162.806,-43982.458,33895.540,0.000
1.625000,-325148.821,-149514.532,-252682.972,-44677.734
1.626000,-324.011,-39223.909,-47346.830,47836.208
1.627000,-331.116,-40948.343,-49244.165,51496.935
1.628000,-337.362,-42829.466,-50890.732,54989.243
1.629000,-341.988,-44772.339,-52310.562,58314.610
1.630000,-346.994,-46761.847,-53446.007,61495.113
1.631000,-349.331,-48789.930,-54190.350,64425.993
1.632000,-351.906,-50779.009,-200000.000,-355.673
1.633000,199910.164,186504.173,186172.485,217829.514
1.634000,-361.490,-54873.228,-55367.279,72978.926
1.635000,-106682.158,56831.026,287500.000,96875.000
1.636000,378.418,48.780,-370267.057,-352444.792
1.637000,-359.774,-54882.717,-55050.468,77158.976
1.638000,57317.543,275286.245,-66103.840,-330273.438
1.639000,-178448.105,2.956,0.334,-2883.577
1.640000,3123.569,-215829.420,-381455.040,-390324.450
1.641000,-352.383,-51557.732,-51714.277,76262.617
1.642000,293669.844,-390600.538,100000.000,2734.375
1.643000,-253164.673,12.159,-87220.001,-71167.755
1.644000,-336.933,-45094.013,-45246.172,69060.707
1.645000,-42602.873,62096.834,42346.668,-291143.799
1.646000,90600.586,0.000,5468.750,3123.713
1.647000,390.434,-211737.871,64433.908,-363252.544
1.648000,-311.661,-37613.869,-37765.312,56052.399
1.649000,-308.514,-36105.204,-36255.884,53071.547
1.650000,-304.079,-34770.918,-34920.263,50130.796
1.651000,-300.360,-33399.916,-33552.027,47130.108
1.652000,-295.496,-31822.491,-31973.553,43380.880
1.653000,-289.917,-30181.503,-30292.606,33720.970
1.654000,399857.378,-14227.438,385857.487,10183.764
1.655000,24.366,-144361.162,54515.791,-137280.083
1.656000,-25000.000,99965.906,96921.110,97180.653
1.657000,75021.362,12.159,-68457.413,-317297.697
1.658000,9.155,96875.000,12495.804,-62842.226
1.659000,0.000,9386.444,3.004,-16937.351
1.660000,0.000,2.289,11718.750,3123.951
1.661000,0.000,0.000,2346.706,0.334
1.662000,0.000,0.000,0.286,2734.375
1.663000,0.000,0.000,0.000,1172.209
1.664000,-249.243,-19846.964,-20004.940,-30924.559
1.665000,399875.355,-9923.506,-9997.749,0.715
1.666000,2343.750,3123.999,-184455.395,-278206.015
1.667000,-245.667,-21027.851,-21189.308,-30888.605
1.668000,-205417.776,194542.408,392278.719,-200000.000
1.669000,-379687.500,21.362,12.159,-64075.089
1.670000,-251.961,-24264.336,-24425.077,-30893.135
1.671000,-256.395,-25275.469,-25438.547,-30899.048
1.672000,-239764.643,43890.381,0.000,21875.000
1.673000,3123.951,6141.329,-190744.448,-156370.926
1.674000,-272.799,-27636.766,-32471.895,-30973.911
1.675000,-34090.567,-30991.888,0.000,2343.750
1.676000,378.418,48.780,-294923.687,99655.962
1.677000,-292.301,-30500.746,-37776.804,-14292.908
1.678000,-152076.197,-138624.287,-71240.377,317382.813
1.679000,-65954.590,0.000,193750.000,24990.463
1.680000,3123.760,352987.528,-209543.419,193854.475
1.681000,12.159,-81287.193,234764.910,-231334.925
1.682000,98437.500,6247.473,337202.168,-287861.061
1.683000,4698.944,3.004,-20813.179,-145565.987
1.684000,2.289,11718.750,3123.665,-147037.458
1.685000,0.000,2346.706,0.334,-2684.069
1.686000,0.000,0.286,2734.375,1561.832
1.687000,0.000,0.000,1172.209,-200000.000
1.688000,0.000,0.000,0.000,-198486.328
1.689000,0.000,0.000,0.000,146.484
1.690000,0.000,0.000,0.000,0.000
1.691000,-118212.891,0.000,0.000,0.000
1.692000,308988.142,-200000.000,0.000,0.000
1.693000,272352.171,-393798.828,0.000,0.000
1.694000,-175861.788,276168.156,-287500.000,0.000
1.695000,-308941.889,-319674.397,52685.547,0.000
1.696000,-363.111,-54372.263,-54535.437,77282.715
1.697000,-359.106,-53951.311,-54110.718,77591.658
1.698000,-107298.660,-133020.020,0.048,-200000.000
1.699000,-200000.000,-350.809,-51881.313,-52041.340
1.700000,-350.904,-51071.167,-51230.288,75887.489
1.701000,-268944.645,324804.735,306541.443,362500.000
1.702000,-12500.000,94.604,12.159,-85913.801
1.703000,-328.493,-44516.373,-44669.580,68104.172
1.704000,-325.727,-42799.187,-42951.679,65524.530
1.705000,-82962.704,125958.729,1.478,-399999.952
1.706000,2343.750,3123.760,377972.984,196722.364
1.707000,-309.944,-37379.360,-37530.661,54984.379
1.708000,-101122.141,-151126.814,51624.775,175000.000
1.709000,200000.000,9.155,12.159,-75195.837
1.710000,0.000,4.578,6.056,-37597.942
1.711000,-286.674,-29888.153,-30022.383,28783.703
1.712000,-102143.860,-298756.409,0.000,0.000
1.713000,50000.000,0.000,0.000,0.000
1.714000,-44360.352,0.000,0.000,0.000
1.715000,-312665.081,106250.000,0.000,0.000
1.716000,221298.075,-266262.817,0.000,0.000
1.717000,106167.269,209254.026,350000.000,0.000
1.718000,-165062.380,-166295.671,-247913.742,0.000
1.719000,-115664.530,199960.136,-134435.511,-321875.000
1.720000,-247.049,-20103.073,-20259.237,-30949.926
1.721000,-243.902,-20147.753,-20307.350,-30933.857
1.722000,-242.329,-20234.632,-20392.418,-30916.977
1.723000,-240.183,-20461.321,-20617.676,-30906.677
1.724000,-241.995,-20720.005,-20880.556,-30898.428
1.725000,-242.281,-21009.731,-21171.331,-30893.135
1.726000,3124.046,115541.172,-362584.448,362379.313
1.727000,0.143,-971.651,-88374.758,-89016.581
1.728000,-244.665,-22918.558,-23052.979,24.366
1.729000,12.159,-63855.362,101769.638,60570.812
1.730000,-252.962,-25797.081,-25957.918,-30904.865
1.731000,-218364.000,-219797.182,-247332.001,1.478
1.732000,0.000,2343.750,3123.903,-50108.337
1.733000,-273.705,-27889.967,-33013.058,-30982.780
1.734000,-275.326,-28484.535,-34450.817,-31001.186
1.735000,-50007.200,-337109.375,9.155,12.159
1.736000,-100000.000,399854.422,-15513.515,381008.291
1.737000,-294.924,-32061.195,-39466.906,-444.460
1.738000,273321.342,-203317.261,-189526.367,0.000
1.739000,-187500.000,5468.750,3123.760,-243890.142
1.740000,-311.422,-37336.540,-44723.701,40747.070
1.741000,-318.289,-38899.422,-46398.354,46675.110
1.742000,-357555.389,119039.917,12.159,-84693.050
1.743000,-337.362,-44404.840,-51356.602,57377.243
1.744000,-340.748,-46400.118,-52553.654,60615.015
1.745000,379663.849,264817.619,293781.042,340234.375
1.746000,-347.662,-50370.502,-54231.739,66346.407
1.747000,-349.140,-52187.014,-54896.688,68787.861
1.748000,-352.097,-53674.555,-55166.197,70822.525
1.749000,-354.052,-54599.333,-55169.296,72533.321
1.750000,-356.245,-54964.304,-55163.574,73993.731
1.751000,-357.246,-54888.916,-55057.478,75212.765
1.752000,780.869,-263334.703,350727.654,14918.137
1.753000,780.869,-263334.703,350727.654,14918.137
1.754000,1538.086,97.609,68645.668,-83795.738
1.755000,73.242,-200000.000,-353.909,-53889.751
1.756000,0.000,-199807.739,12.159,-90076.542
1.757000,0.000,9.155,-25000.000,99956.083
1.758000,0.000,0.000,75021.362,12.159
1.759000,0.000,0.000,9.155,96875.000
1.760000,-344.372,-49369.669,-49528.551,74072.981
1.761000,237781.763,-312500.000,2734.375,1561.832
1.762000,6.056,-42316.055,-12720.108,-32232.189
1.763000,-326.109,-42248.249,-42401.409,64610.386
1.764000,-83020.687,-122350.168,-106066.895,0.000
1.765000,0.000,-200000.000,-311.422,-38414.478
1.766000,-306.606,-36917.639,-37071.753,53885.460
1.767000,-300.598,-35572.958,-35724.497,50939.274
1.768000,-368562.603,-178125.000,94.604,12.159
1.769000,12.159,-74207.020,46764.660,9876.013
1.770000,-283.575,-29218.197,-29346.514,23914.528
1.771000,-54387.999,-54166.317,21866.322,0.334
1.772000,0.000,2343.750,3123.951,143658.400
1.773000,-260.639,-22032.213,-20180.988,-24871.302
1.774000,-252.676,-20931.101,-19805.765,-30394.411
1.775000,-104593.658,-270312.500,9.155,12.159
1.776000,-25000.000,99969.292,97532.320,-102487.040
1.777000,75094.604,12.159,-62659.025,-274866.056
1.778000,9.155,387500.000,49984.884,98754.215
1.779000,0.000,37509.155,12.159,-62024.260
1.780000,0.000,9.155,48437.500,6248.093
1.781000,0.000,0.000,4698.181,3124.046
1.782000,0.000,0.000,2343.750,5468.750
1.783000,0.000,0.000,0.000,2346.754
1.784000,0.000,0.000,0.000,0.143
1.785000,367187.500,0.000,0.000,0.000
1.786000,-30890.083,0.000,0.000,0.000
1.787000,371672.106,-132226.563,0.000,0.000
1.788000,-24895.382,-30896.664,0.000,0.000
1.789000,210594.893,125731.468,175366.211,0.000
1.790000,296530.342,296496.725,-103865.671,-300000.000
1.791000,-67615.223,-4260.731,325304.699,77673.340
1.792000,3123.903,309265.518,240493.488,59253.931
1.793000,-282.145,-28657.436,-35011.292,-30893.755
1.794000,399858.904,-14328.718,382494.354,385144.043
1.795000,9.155,12.159,-75903.845,-11145.639
1.796000,-300.694,-32394.171,-40169.048,3323.746
1.797000,-4893.541,262582.350,137702.179,212048.340
1.798000,380370.331,0.000,2343.750,3123.760
1.799000,97.609,152632.093,303217.030,-215522.051
1.800000,-320.768,-39360.619,-47516.584,48142.719
1.801000,134326.696,-48386.955,-142968.750,9.155
1.802000,0.000,-200000.000,-338.125,-44992.542
1.803000,-346.756,-47022.915,-53256.798,61744.976
1.804000,-45007.706,126415.586,272961.903,276751.709
1.805000,-146612.167,18750.000,11718.750,3123.569
1.806000,12.159,-90894.413,-251538.944,235218.334
1.807000,-358.105,-54940.414,-55371.523,73117.256
1.808000,275316.525,227808.714,-132336.426,0.000
1.809000,75605.106,0.000,0.000,0.000
1.810000,209393.644,-191796.875,0.000,0.000
1.811000,-54818.964,77201.080,0.000,0.000
1.812000,235496.378,151808.977,-270727.539,0.000
1.813000,-183079.910,-107666.016,0.000,0.000
1.814000,308460.045,346166.992,0.000,0.000
1.815000,-69275.045,-74494.791,60382.080,0.000
1.816000,337299.013,-184576.607,-355952.454,-150000.000
1.817000,-1379.824,-201375.628,-202011.108,300266.075
1.818000,-342.417,-48820.734,-48978.138,73425.817
1.819000,-337.219,-46974.707,-47129.345,71315.718
1.820000,-332.832,-44928.980,-45079.088,68828.773
1.821000,-327.349,-43052.006,-43203.783,66231.298
1.822000,-321.198,-41536.093,-41688.156,63701.868
1.823000,3123.713,-134532.356,-287657.928,225238.991
1.824000,-316.000,-39010.286,-25781.250,3123.760
1.825000,1561.880,360867.310,196804.523,61040.592
1.826000,-300.837,-34651.709,-34800.482,49891.424
1.827000,365494.299,-31066.990,-90625.000,378.418
1.828000,1.478,0.143,-1136.065,-120409.250
1.829000,-276.279,-28282.499,-28165.436,19204.617
1.830000,-69836.855,-332092.714,-27673.244,16894.531
1.831000,-50394.440,300000.000,387500.000,49983.788
1.832000,0.000,0.000,18750.000,24991.894
1.833000,-251.627,-20811.081,-20250.893,-30848.217
1.834000,-4697.418,-140249.538,-250000.000,10.681
1.835000,397655.869,1.478,-7791.185,171093.702
1.836000,-240.564,-19682.884,-19839.716,-30937.481
1.837000,-243.044,-19748.545,-19905.567,-30923.605
1.838000,384546.041,0.000,2734.375,1562.023
1.839000,12.159,-61633.635,342028.475,301281.261
1.840000,-242.424,-20990.849,-21152.544,-30889.940
1.841000,-241.995,-21673.870,-21833.944,-30883.551
1.842000,-245.047,-22554.207,-22713.184,-30881.882
1.843000,-245.333,-23540.115,-23700.905,-30886.030
1.844000,-247.765,-24369.955,-24529.171,-30892.134
1.845000,-251.484,-25373.077,-25533.962,-30899.620
1.846000,3123.999,9270.000,-105.619,234254.217
1.847000,-399999.952,-517.988,-56236.792,-57553.720
1.848000,-396972.656,390.482,216783.285,-57046.270
1.849000,293.016,-200000.000,-272.512,-27692.413
1.850000,0.000,-199621.582,48.780,-282521.296
1.851000,0.000,36.621,-50000.000,199929.810
1.852000,0.000,0.000,150045.776,12.159
1.853000,0.000,0.000,9.155,193750.000
1.854000,0.000,0.000,0.000,18760.681
1.855000,0.000,0.000,0.000,4.578
1.856000,-301.552,-34099.102,-41426.420,16919.422
1.857000,-2676.487,251736.307,150000.000,-62500.000
1.858000,3027.344,390.434,-203924.990,161305.666
1.859000,-323.296,-40020.800,-47773.838,49476.385
1.860000,179646.635,85107.851,149270.535,-220312.500
1.861000,-384768.677,11.444,3.004,-21737.862
1.862000,3123.617,-225186.634,-343958.187,-318504.572
1.863000,-348.377,-49783.754,-53954.315,65646.315
1.864000,-54493.999,68159.628,0.000,2343.750
1.865000,85.449,0.000,0.000,2343.750
1.866000,-353.098,-54770.756,-54998.493,73642.206
1.867000,-91065.311,374559.689,330469.847,-19567.871
1.868000,245959.473,0.000,48437.500,6247.187
1.869000,3123.569,387288.046,-340837.574,240927.267
1.870000,-357.962,-53807.688,-53971.004,77677.679
1.871000,-322083.664,137803.364,325000.000,756.836
1.872000,0.000,-50000.000,199911.976,-12940.264
1.873000,0.000,150094.604,12.159,-89759.111
1.874000,0.000,9.155,387500.000,49978.304
1.875000,0.000,0.000,37509.155,12.159
1.876000,0.000,0.000,9.155,48437.500
1.877000,0.000,0.000,0.000,4699.326
1.878000,0.000,0.000,0.000,1.144
1.879000,-178125.000,0.000,0.000,0.000
1.880000,251201.630,0.000,0.000,0.000
1.881000,-281132.269,-287500.000,0.000,0.000
1.882000,-38784.075,57660.961,0.000,0.000
1.883000,967.455,181458.664,247265.625,0.000
1.884000,-365673.065,-344018.555,0.000,0.000
1.885000,-1077.414,-98473.406,-200000.000,0.000
1.886000,-396338.415,364441.586,-291394.043,0.000
1.887000,-359496.975,-12622.499,84532.070,-106250.000
1.888000,6247.807,-50216.866,318534.088,25114.870
1.889000,-269.413,-25792.933,-24763.346,1800.442
1.890000,-22320.366,-10573.578,0.000,2343.750
1.891000,1440.430,97.609,276071.548,-140432.262
1.892000,-252.199,-20834.732,-20711.851,-30979.013
1.893000,290622.473,-30666.590,-326761.627,-257519.531
1.894000,73071.289,0.000,-100000.000,0.000
1.895000,3124.046,34297.037,312421.417,-331370.878
1.896000,-245.667,-20106.983,-20263.672,-30919.123
1.897000,-56329.918,159254.265,9375.000,2734.375
1.898000,10.681,6.056,-31042.671,-280908.394
1.899000,-246.000,-21383.619,-21542.549,-30890.036
1.900000,-63232.803,-31995.010,-72522.449,93310.547
1.901000,-30885.172,0.000,-200000.000,-251.007
1.902000,3123.999,284279.013,-137596.607,-309495.735
1.903000,-254.202,-25794.220,-25955.391,-30905.437
1.904000,212392.378,-328245.783,246875.000,0.000
1.905000,80432.129,0.000,0.000,0.000
1.906000,374032.402,-225000.000,0.000,0.000
1.907000,-250274.897,33984.375,0.000,0.000
1.908000,-272010.279,-59496.117,-259375.000,0.000
1.909000,332829.237,227297.163,336686.707,0.000
1.910000,-384492.350,-372019.386,-306328.106,-287500.000
1.911000,-584.459,-61941.957,-76718.473,-19715.881
1.912000,-297.499,-32025.433,-39799.309,417.614
1.913000,-299.644,-33189.631,-41076.279,10375.404
1.914000,-303.364,-34454.060,-42290.068,20631.552
1.915000,-310.230,-35816.193,-43685.389,31617.594
1.916000,-315.428,-37278.414,-45228.910,41341.209
1.917000,3123.713,-187651.825,-87683.344,87683.582
1.918000,0.334,-2628.756,-324480.486,-390636.444
1.919000,2734.375,1561.832,270229.578,-320411.110
1.920000,-338.554,-44423.676,-51769.209,-50000.000
1.921000,-50000.000,199913.454,-12112.188,186579.657
1.922000,-348.282,-50427.532,-54405.975,66566.753
1.923000,62295.866,337284.994,-71605.587,368750.000
1.924000,-115625.000,9.155,12.159,-90955.448
1.925000,-354.481,-55169.630,-55389.977,74121.761
1.926000,-353.670,-55121.231,-55288.410,75309.420
1.927000,-55169.296,76271.057,0.143,-200000.000
1.928000,2343.750,3123.569,-159588.432,-15839.052
1.929000,-355.005,-54092.741,-54255.533,77695.179
1.930000,399822.474,-27046.394,-27127.790,-361152.411
1.931000,-272753.906,9.155,12.159,-89331.865
1.932000,24989.176,-301587.009,-76592.016,252357.864
1.933000,-341.511,-49326.754,-49485.874,73941.755
1.934000,-95413.876,143926.907,0.000,2343.750
1.935000,3027.344,390.434,-303536.940,-344943.237
1.936000,-324.249,-42020.893,-42173.243,64425.230
1.937000,-317.907,-40664.244,-40815.783,61902.428
1.938000,-314.474,-39436.340,-39588.070,59377.241
1.939000,-309.992,-37941.408,-38093.901,56637.573
1.940000,3123.760,-3267.050,-397017.622,78334.618
1.941000,-399999.952,-604.963,-69818.163,-70117.474
1.942000,-396972.656,390.434,-21110.153,84749.126
1.943000,293.016,-200000.000,-289.536,-32037.783
1.944000,0.000,-199621.582,48.780,-293263.578
1.945000,0.000,36.621,-199975.634,-146631.813
1.946000,0.000,18.311,45.776,12.159
1.947000,0.000,0.000,9.155,375006.056
1.948000,0.000,0.000,4.578,10.681
1.949000,0.000,0.000,0.000,4.578
1.950000,87500.000,0.000,0.000,0.000
1.951000,311550.140,0.000,0.000,0.000
1.952000,-246.763,-19802.618,-19943.428,-30975.866
1.953000,-19581.032,-19736.814,-30957.413,1.478
1.954000,-25000.000,99969.530,197517.824,197497.892
1.955000,-240.040,-19992.208,-20150.375,-30915.833
1.956000,246796.083,390545.464,-396995.735,396875.000
1.957000,248437.500,11.444,3.004,-15438.938
1.958000,-242.472,-21347.141,-21503.878,-30886.030
1.959000,-244.713,-22061.682,-22220.612,-30884.504
1.960000,-23114.300,-30885.935,0.000,-200000.000
1.961000,2343.750,3123.999,378028.011,90527.344
1.962000,-252.962,-26283.121,-26446.342,-30907.106
1.963000,-75108.624,-12609.959,81129.169,-121875.000
1.964000,78906.250,9.155,12.159,-69031.191
1.965000,6247.807,-318967.915,280985.212,181007.862
1.966000,-279.617,-28546.429,-35253.763,-30861.425
1.967000,-279.617,-28546.429,-35253.763,-28906.250
1.968000,11.444,3.004,-18765.402,-398300.362
1.969000,2.289,11718.750,3123.808,-350126.362
1.970000,0.000,2346.563,0.143,-1202.250
1.971000,0.000,0.143,2734.375,1561.880
1.972000,0.000,0.000,1172.209,-200000.000
1.973000,0.000,0.000,0.000,-198486.328
1.974000,0.000,0.000,0.000,146.484
1.975000,0.000,0.000,0.000,0.000
1.976000,234838.867,0.000,0.000,0.000
1.977000,-93062.305,200000.000,0.000,0.000
1.978000,231604.862,-146679.688,0.000,0.000
1.979000,-375832.844,175968.027,175000.000,0.000
1.980000,64217.901,-264645.147,149981.689,0.000
1.981000,149800.968,9161.043,94013.453,-365625.000
1.982000,-2807.665,378176.069,358308.029,-242213.440
1.983000,-353.909,-54089.499,-55342.293,71602.535
1.984000,-200000.000,-352.335,-55107.164,-55294.466
1.985000,-354.099,-54979.753,-55149.412,75647.736
1.986000,169707.823,148450.279,198785.400,0.000
1.987000,200000.000,11718.750,3123.617,140412.617
1.988000,-351.381,-53807.068,-53970.098,77700.186
1.989000,-348.616,-53083.420,-53244.686,77441.645
1.990000,188026.047,-325695.801,0.715,-399999.952
1.991000,0.000,0.000,0.000,-200000.000
1.992000,-337.172,-48765.230,-48924.303,73321.486
1.993000,-100732.422,336765.146,88612.366,25000.000
1.994000,349633.789,168737.793,48.780,-330959.702
1.995000,-317.860,-41466.093,-41618.538,63538.504
1.996000,-312.328,-40191.507,-40340.757,61027.241
1.997000,175080.156,135210.419,5.913,0.715
1.998000,2343.750,3123.808,315485.096,12359.476
1.999000,-294.638,-34472.084,-34622.431,49713.039
2.000000,-208264.685,-8302.307,-188332.605,-400000.000
2.001000,-49560.261,-166113.281,0.000,0.000
2.002000,-71991.396,-253001.642,-43750.000,0.000
2.003000,351816.511,362258.148,292028.809,0.000
2.004000,146773.386,71780.682,-265604.496,-287500.000
2.005000,-524.473,-48452.044,-43552.923,-14428.806
2.006000,-256.777,-22731.066,-20460.558,-19026.232
2.007000,-252.104,-21583.652,-20085.621,-28219.748
2.008000,-248.623,-20773.983,-20278.740,-30885.792
2.009000,-247.335,-20243.502,-20296.383,-30984.974
2.010000,-242.329,-19865.561,-20020.580,-30966.330
2.011000,3124.046,171797.848,171797.228,256129.074
2.012000,0.334,-1954.317,-158403.826,-159658.480
2.013000,2734.375,1562.023,68711.090,165585.756
2.014000,1172.590,-200000.000,-240.517,-20121.384
2.015000,0.000,-196923.828,195.217,-189848.757
2.016000,-242.949,-20711.184,-20869.589,-30894.136
2.017000,0.334,-200000.000,-243.425,-21652.222
2.018000,-246.048,-22490.025,-22650.051,-30884.218
2.019000,-247.812,-23448.515,-23610.115,-30886.889
2.020000,337017.298,-37500.000,378.418,48.780
2.021000,12.159,-64709.902,312438.536,268346.691
2.022000,-260.925,-28054.523,-28935.957,-30932.522
2.023000,-375007.582,-369335.938,11.444,3.004
2.024000,0.000,0.000,1.144,1.478
2.025000,-279.522,-28800.106,-35617.924,-30192.614
2.026000,385188.150,381655.455,388521.814,-400000.000
2.027000,-400000.000,2734.375,1561.928,98375.797
2.028000,-297.165,-32730.341,-40614.939,7449.770
2.029000,-302.124,-33973.312,-41801.739,17519.999
2.030000,146020.937,66467.285,9.155,12.159
2.031000,46093.750,3123.713,-115774.441,-128306.246
2.032000,-324.774,-39924.145,-48165.560,49671.316
2.033000,-328.779,-41759.825,-49895.716,53257.895
2.034000,-335.932,-43704.128,-51332.092,56656.837
2.035000,-340.891,-45692.253,-52525.711,59907.150
2.036000,-343.513,-47683.525,-53586.721,63000.488
2.037000,780.869,-123486.042,-211771.822,-193685.770
2.038000,-200000.000,-353.432,-51581.955,-54889.441
2.039000,-198559.570,97.609,68059.874,-222077.084
2.040000,73.242,-200000.000,-357.580,-54384.899
2.041000,0.000,-199810.791,24.366,-184059.334
2.042000,0.000,18.311,-25000.000,99954.891
2.043000,0.000,0.000,75021.362,12.159
2.044000,0.000,0.000,9.155,96875.000
2.045000,0.000,0.000,0.000,9386.444
2.046000,0.000,0.000,0.000,2.289
2.047000,78125.000,0.000,0.000,0.000
2.048000,-354.862,-52708.626,-52867.365,77237.654
2.049000,385521.412,-86290.741,351953.125,9.155
2.050000,0.000,-200000.000,-344.944,-49745.035
2.051000,-340.462,-48099.804,-48256.016,72581.434
2.052000,-21469.307,248376.274,238510.370,-301208.496
2.053000,290889.454,-353125.000,11718.750,3123.713
2.054000,12.159,-82141.781,-69556.332,-108055.687
2.055000,-316.191,-39704.323,-39852.333,60110.378
2.056000,-209876.108,-247801.876,307043.457,0.334
2.057000,0.334,-200000.000,-303.602,-35350.180
2.058000,-296.545,-34022.284,-34172.153,48616.409
2.059000,-292.492,-32576.561,-32725.620,45464.230
2.060000,250616.407,-150000.000,378.418,48.780
2.061000,12.159,-71020.937,199450.254,-370458.794
2.062000,-271.988,-25399.733,-23349.571,874.329
2.063000,-379114.580,-340921.831,-182658.386,2.956
2.064000,0.000,45.776,12.159,-64709.806
2.065000,0.000,9.155,193750.000,24992.085
2.066000,0.000,0.000,18760.681,6.056
2.067000,0.000,0.000,4.578,24218.750
2.068000,0.000,0.000,0.000,2349.663
2.069000,0.000,0.000,0.000,0.572
2.070000,278125.000,0.000,0.000,0.000
2.071000,-61830.425,0.000,0.000,0.000
2.072000,-328530.741,-382031.250,0.000,0.000
2.073000,-20462.132,-30896.521,0.000,0.000
2.074000,351024.103,187888.718,369433.594,0.000
2.075000,389339.209,-10740.280,-15442.991,0.000
2.076000,-62060.928,-36426.163,-77710.438,93762.207
2.077000,-243.998,-22869.682,-23030.472,-30884.933
2.078000,-247.574,-23780.155,-23940.420,-30887.127
2.079000,-249.481,-24656.963,-24819.613,-30889.606
2.080000,-247.192,12.159,-65710.878,168822.813
2.081000,-262.499,-27833.509,-29598.045,-30924.892
2.082000,-68738.222,214855.433,-102466.297,75610.352
2.083000,-30978.489,0.143,-200000.000,-279.999
2.084000,3123.856,-175113.249,49859.190,215513.659
2.085000,-290.823,-29849.291,-37154.722,-19276.667
2.086000,-50301.027,-118821.907,56250.000,384.521
2.087000,9.155,12.159,-77515.173,337523.746
2.088000,-308.084,-34306.145,-42535.067,21412.039
2.089000,-2502.489,-285167.742,-352352.524,259280.777
2.090000,335240.555,0.000,2343.750,3123.713
2.091000,48.780,-338918.495,190524.340,88870.287
2.092000,-10765.171,245803.690,-25839.138,145787.048
2.093000,-371054.840,0.000,2734.375,1561.785
2.094000,12.159,-90100.861,-356482.792,-270604.515
2.095000,-355.291,-50249.624,-54764.128,66747.618
2.096000,256481.075,252662.182,98828.125,0.000
2.097000,71106.911,0.000,0.000,0.000
2.098000,-2241.659,137255.859,0.000,0.000
2.099000,386139.154,-381446.695,200000.000,0.000
2.100000,279698.849,236072.922,99365.234,0.000
2.101000,-251718.092,98276.615,302385.473,50000.000
2.102000,-46258.974,190142.393,168994.713,265344.238
2.103000,-361.443,-54443.121,-54606.009,77538.300
2.104000,-359.249,-53896.141,-54061.174,77690.840
2.105000,-356.197,-53230.286,-53391.981,77534.008
2.106000,-354.958,-52359.533,-52518.845,76990.747
2.107000,-354.242,-51628.208,-51788.139,76340.342
2.108000,49977.970,-3163.290,146826.839,-295291.042
2.109000,12.159,-88245.392,211132.050,171619.749
2.110000,96875.000,12494.659,-150741.243,174256.325
2.111000,9386.444,3.004,-21454.048,291512.871
2.112000,-328.493,-43515.205,-43666.649,67968.750
2.113000,2734.375,1561.832,-93829.203,270233.011
2.114000,-317.574,-39394.569,-39542.961,59154.654
2.115000,159300.852,-64136.934,-210827.351,321875.000
2.116000,75646.973,0.048,-200000.000,-301.456
2.117000,49981.308,297893.476,347883.987,-97030.830
2.118000,-292.253,-32147.646,-32298.660,43968.344
2.119000,-100119.686,368887.568,-187500.000,24218.750
2.120000,94.604,12.159,-71301.699,338622.618
2.121000,-272.703,-24915.266,-23228.121,-3755.760
2.122000,-135645.247,50096.989,186962.366,-103662.109
2.123000,-104867.744,0.715,-399999.952,-509.310
2.124000,3123.999,290544.796,337419.558,-59496.069
2.125000,-248.718,-20112.467,-20265.865,-30975.056
2.126000,-250625.658,-225967.312,-250000.000,1538.086
2.127000,9.155,12.159,-63110.685,-320422.697
2.128000,-243.950,-20205.259,-20361.376,-30910.587
2.129000,-245.285,-20483.923,-20641.661,-30900.192
2.130000,-243.616,-20727.921,-20885.754,-30893.612
2.131000,49984.884,148682.642,198672.628,348069.572
2.132000,12.159,-62695.646,52270.174,11315.441
2.133000,96875.000,12496.138,-200350.380,87147.093
2.134000,9386.444,3.004,-15765.476,106011.868
2.135000,2.289,11718.750,3123.999,-328219.604
2.136000,0.000,2346.706,0.334,-2019.548
2.137000,0.000,0.286,2734.375,1561.975
2.138000,0.000,0.000,1172.209,-200000.000
2.139000,0.000,0.000,0.000,-196923.828
2.140000,0.000,0.000,0.000,146.532
2.141000,0.000,0.000,0.000,0.000
2.142000,132202.148,0.000,0.000,0.000
2.143000,-7689.667,200000.000,0.000,0.000
2.144000,-292.778,-30244.541,-37650.776,-15494.776
2.145000,-253247.023,127972.174,-31270.790,390625.000
2.146000,-253247.023,128024.292,12.159,-77991.247
2.147000,-308.228,-34859.467,-43005.037,25422.955
2.148000,-311.232,-36260.319,-44492.483,36299.515
2.149000,-92126.751,88688.278,0.715,-399999.952
2.150000,2343.750,3123.665,-43910.980,-165818.930
2.151000,-335.741,-43112.755,-51167.679,55776.501
2.152000,-226409.006,123360.920,76846.123,-25000.000
2.153000,191992.188,9.155,12.159,-89246.368
2.154000,199912.167,-12749.863,186253.834,-383082.438
2.155000,-356.388,-52779.531,-55387.545,69890.690
2.156000,-87321.424,347853.088,0.000,2343.750
2.157000,2734.375,1561.785,248329.687,-286045.647
2.158000,-359.106,-55086.422,-55254.650,75740.004
2.159000,-232866.144,-200835.037,263356.018,-50781.250
2.160000,-223071.289,0.000,1538.086,97.609
2.161000,0.000,12.016,0.715,-5798.435
2.162000,0.000,0.572,2343.750,3123.569
2.163000,0.000,0.000,2345.181,1561.785
2.164000,0.000,0.000,1171.875,3027.344
2.165000,0.000,0.000,0.000,293.112
2.166000,0.000,0.000,0.000,0.000
2.167000,-296142.578,0.000,0.000,0.000
2.168000,35482.883,0.000,0.000,0.000
2.169000,-287791.967,-77587.891,0.000,0.000
2.170000,197307.253,54115.582,-250000.000,0.000
2.171000,-196741.390,-234898.949,206518.555,0.000
2.172000,149686.480,-262814.713,-49524.927,118750.000
2.173000,-10217.381,355168.056,350317.478,263023.376
2.174000,-312.567,-37435.341,-37587.929,55370.569
2.175000,-309.658,-35922.384,-36074.352,52376.890
2.176000,-781.250,3123.808,221745.396,-334505.177
2.177000,-293.493,-31533.432,-31679.201,41837.502
2.178000,-187967.587,-325469.637,-162022.972,287500.000
2.179000,306016.207,237265.015,12.159,-71301.699
2.180000,99966.002,-203038.120,-102801.943,298984.766
2.181000,-265.694,-22893.047,-21245.050,-19830.799
2.182000,-166735.125,-228502.226,112619.019,2343.750
2.183000,2929.688,780.964,-114082.432,146854.925
2.184000,-251.961,-19949.627,-20106.173,-30968.618
2.185000,-69550.657,-218769.550,-346905.231,120312.500
2.186000,81164.551,0.000,-200000.000,-246.382
2.187000,0.000,0.000,300000.000,399876.785
2.188000,-245.428,-20576.811,-20734.739,-30901.146
2.189000,-125082.111,-256370.687,381250.000,11718.750
2.190000,45.776,12.159,-63208.342,536.728
2.191000,-248.384,-22666.550,-22828.341,-30885.649
2.192000,-63635.635,354796.982,313756.847,92895.508
2.193000,243557.549,-62741.375,-231250.000,0.000
2.194000,-36285.543,-46637.106,-377713.013,0.000
2.195000,-303230.858,96768.427,93629.217,-334375.000
2.196000,-2114.534,-224332.476,-232603.502,-247455.978
2.197000,-268.745,-27462.816,-31068.325,-30955.887
2.198000,-275.469,-27590.275,-32915.592,-30977.488
2.199000,-280.380,-28149.652,-34432.697,-30995.941
2.200000,-283.289,-28861.713,-35655.689,-29926.777
2.201000,-288.296,-29682.446,-36766.624,-22179.890
2.202000,3123.856,109255.457,-56399.202,356203.175
2.203000,1.478,-9451.389,-211879.063,330779.982
2.204000,5468.750,3123.808,334246.922,171715.164
2.205000,2345.228,0.143,-1219.416,-136174.822
2.206000,0.143,2929.688,780.916,-237534.571
2.207000,0.000,586.081,-200000.000,-316.191
2.208000,-321.150,-38354.349,-46705.484,46114.349
2.209000,-281250.000,2929.688,780.916,132771.587
2.210000,-338.650,-43807.507,-51724.386,56946.421
2.211000,-344.992,-45794.678,-52937.508,60202.026
2.212000,-190941.429,190002.441,0.000,-200000.000
2.213000,-200000.000,-349.951,-51703.930,-55062.962
2.214000,-353.861,-53356.218,-55358.267,70584.774
2.215000,-50212.955,181033.468,-84092.474,-353125.000
2.216000,-37500.000,45.776,12.159,-90638.065
2.217000,-355.053,-55048.227,-55214.691,76091.099
2.218000,-354.576,-54844.952,-55012.035,76889.992
2.219000,-54721.355,77437.830,0.334,-200000.000
2.220000,2343.750,3123.617,268540.955,181040.287
2.221000,-350.285,-52703.333,-52864.504,77203.560
2.222000,11688.471,386686.039,38696.575,-400000.000
2.223000,-58056.641,9.155,12.159,-87683.868
2.224000,99957.800,193999.624,-306019.783,209058.332
2.225000,3123.665,-259554.672,196694.708,-312226.057
2.226000,-399999.952,-655.031,-88004.065,-88308.716
2.227000,-397265.625,-327.539,-44002.056,-44154.358
2.228000,-199999.952,-200000.000,-318.813,-40870.190
2.229000,0.000,-199230.957,48.780,-321682.119
2.230000,0.000,36.621,-250000.000,199922.514
2.231000,0.000,0.000,150094.604,12.159
2.232000,0.000,11.826,1.478,-9594.822
2.233000,0.000,1.144,5468.750,3123.808
2.234000,0.000,0.000,2345.228,0.143
2.235000,0.000,0.000,0.143,2929.688
2.236000,0.000,0.000,0.000,586.081
2.237000,0.000,0.000,0.000,0.000
2.238000,-166113.281,0.000,0.000,0.000
2.239000,13.971,0.000,0.000,0.000
2.240000,-255.823,-22264.099,-20377.588,-23438.883
2.241000,387168.407,-287815.952,-375469.017,100000.000
2.242000,0.000,756.836,97.609,302341.270
2.243000,-240.850,-19796.085,-19953.775,-30959.463
2.244000,-238.180,-19788.694,-19946.051,-30942.965
2.245000,-320433.855,305195.618,5.913,0.715
2.246000,2343.750,3124.046,-365704.346,-109454.966
2.247000,-237.226,-20589.066,-20746.803,-30896.044
2.248000,399881.363,-10294.533,389626.598,384551.954
2.249000,14062.500,21.362,12.159,-60840.225
2.250000,-239.849,-23009.825,-23171.520,-30888.128
2.251000,-244.665,-23919.868,-24083.710,-30890.322
2.252000,8709.478,45916.748,0.000,24218.750
2.253000,21875.000,0.000,0.000,2343.750
2.254000,-258.923,-27886.963,-29808.235,-30938.721
2.255000,381143.141,165500.498,-59495.974,-306250.000
2.256000,136083.984,0.000,2734.375,1561.928
2.257000,0.000,0.000,1172.209,-200000.000
2.258000,0.000,0.000,0.000,-197070.313
2.259000,0.000,0.000,0.000,300000.000
2.260000,0.000,0.000,0.000,0.000
2.261000,140917.969,0.000,0.000,0.000
2.262000,-197053.242,-200000.000,0.000,0.000
2.263000,313598.967,75732.422,0.000,0.000
2.264000,273624.659,251036.787,-350000.000,0.000
2.265000,20061.874,-232360.554,-168078.613,0.000
2.266000,-93902.111,65440.512,250185.776,-40625.000
2.267000,-5158.281,149137.831,15037.584,20124.054
2.268000,-331.354,-42567.825,-50680.590,54763.460
2.269000,-334.597,-44533.968,-52023.745,58106.327
2.270000,-339.079,-46528.339,-53113.747,61272.669
2.271000,-344.849,-48527.527,-53980.875,64237.738
2.272000,-351.238,-50781.250,3123.617,168545.532
2.273000,-351.858,-53779.602,-55165.863,71187.544
2.274000,-355.244,-54780.293,-55329.180,72862.434
2.275000,-274709.892,-221875.000,45.776,12.159
2.276000,-200000.000,-354.385,-54923.058,-55091.333
2.277000,-355.768,-54724.741,-54889.870,77091.265
2.278000,-319849.491,-361619.949,-151049.805,0.000
2.279000,31250.000,48437.500,6247.187,-25415.707
2.280000,-352.097,-52395.535,-52557.564,76961.040
2.281000,-348.663,-51636.505,-51794.720,76283.979
2.282000,101962.280,-268261.719,2.956,0.334
2.283000,0.143,-1357.126,-189193.010,-189810.562
2.284000,-330.544,-45283.747,-45437.860,69213.390
2.285000,247291.708,197282.124,104162.788,-350000.000
2.286000,100000.000,3027.344,390.434,-187910.366
2.287000,-310.516,-39227.819,-39379.787,59002.590
2.288000,-306.654,-37778.616,-37928.534,56231.976
2.289000,359233.427,390482.855,256457.949,-100000.000
2.290000,-2378.511,-278640.795,-279840.469,-397574.997
2.291000,-291.061,-33467.150,-33618.689,47323.275
2.292000,-286.388,-31867.933,-32016.230,43695.831
2.293000,-281.572,-30254.173,-30350.208,34443.521
2.294000,-274.467,-28523.684,-28302.431,21063.948
2.295000,-272.226,-26590.443,-25438.023,8153.486
2.296000,3123.951,153028.631,287412.119,-21892.834
2.297000,0.715,-4191.637,-370426.226,-337123.156
2.298000,5468.750,3123.951,-59460.545,390545.321
2.299000,2345.228,-399999.952,-504.065,-42060.709
2.300000,0.048,-397070.313,780.964,-89863.729
2.301000,0.000,586.081,-200000.000,-248.289
2.302000,0.000,0.000,-199243.164,97.609
2.303000,0.000,10.681,6.056,-31183.052
2.304000,-242.758,-19812.346,-19971.180,-30922.842
2.305000,-250000.000,387500.000,49985.027,-51263.475
2.306000,-242.424,-20587.063,-20744.562,-30895.233
2.307000,-242.043,-21040.297,-21199.989,-30887.651
2.308000,224188.566,-377343.750,11.444,3.004
2.309000,1.478,-7847.643,50718.641,45645.046
2.310000,-246.525,-24280.262,-24440.527,-30892.658
2.311000,-25267.601,-25428.295,-30896.282,0.000
2.312000,0.000,2343.750,3123.999,87390.804
2.313000,-259.590,-27617.550,-30519.485,-30947.924
2.314000,-266.314,-27455.568,-32435.942,-30970.573
2.315000,95714.855,66809.082,9.155,12.159
2.316000,48437.500,6247.759,-12730.122,205966.187
2.317000,-284.147,-30346.203,-37584.829,-14904.022
2.318000,-31340.361,-39032.888,-4745.531,0.000
2.319000,-118750.000,769.043,48.780,-306886.864
2.320000,-304.174,-34990.978,-42963.314,26101.971
2.321000,99961.185,195450.640,194441.032,304617.643
2.322000,12.159,-80750.132,-105518.293,213001.156
2.323000,393750.000,24989.986,98764.086,248505.497
2.324000,18759.155,12.159,-83875.179,-182703.400
2.325000,9.155,46093.750,3123.665,-143918.991
2.326000,0.000,2355.576,1.478,-10763.645
2.327000,0.000,1.144,5468.750,3123.665
2.328000,0.000,0.000,2345.228,0.143
2.329000,0.000,0.000,0.143,2929.688
2.330000,0.000,0.000,0.000,586.081
2.331000,0.000,0.000,0.000,0.000
2.332000,-82812.500,0.000,0.000,0.000
2.333000,36700.439,-400000.000,0.000,0.000
2.334000,235279.417,-71289.063,0.000,0.000
2.335000,117639.685,-35644.531,0.000,0.000
2.336000,-355.291,-54651.499,-54816.914,77278.137
2.337000,-352.812,-54263.067,-54426.146,77615.404
2.338000,38823.843,0.000,2734.375,1561.785
2.339000,12.159,-89246.416,233202.314,192261.887
2.340000,-348.520,-51429.224,-51586.342,75987.101
2.341000,-43970.537,-84471.560,-62231.445,9.155
2.342000,0.000,24218.750,3123.665,-256432.104
2.343000,-328.779,-44529.963,-44683.647,68265.629
2.344000,-323.009,-42725.611,-42879.343,65684.223
2.345000,-281003.380,331250.000,378.418,48.780
2.346000,0.143,-1254.702,-155001.879,-155607.986
2.347000,-307.274,-37231.874,-37385.750,55178.308
2.348000,-353272.057,-392613.983,-239306.641,0.000
2.349000,150000.000,387500.000,49981.594,-252072.191
2.350000,-288.105,-31542.110,-31689.262,41402.626
2.351000,-280.619,-29775.476,-29898.405,29679.298
2.352000,329695.559,94531.250,0.000,378.418
2.353000,0.000,0.000,0.000,36.621
2.354000,0.000,0.000,0.000,0.000
2.355000,365234.375,0.000,0.000,0.000
2.356000,-51807.165,-350000.000,0.000,0.000
2.357000,316417.980,78002.930,0.000,0.000
2.358000,-306409.454,-256492.090,212500.000,0.000
2.359000,162730.360,157780.361,-190852.356,0.000
2.360000,-87577.581,346796.799,-253245.926,-271875.000
2.361000,-964.975,-79557.085,-80177.546,-123731.041
2.362000,-241.566,-19976.425,-20131.683,-30917.406
2.363000,-240.612,-20167.923,-20325.375,-30905.485
2.364000,-241.375,-20457.506,-20616.531,-30895.472
2.365000,-241.852,-20794.821,-20953.512,-30887.842
2.366000,-243.473,-21274.090,-21434.546,-30884.361
2.367000,3124.046,31164.408,-86.212,-259495.687
2.368000,-244.188,-22692.060,-1562.500,6248.045
2.369000,3123.999,-296970.558,-193846.178,-187620.640
2.370000,-252.056,-25672.388,-25834.894,-30900.669
2.371000,-18857.002,-334495.783,-387500.000,756.836
2.372000,97.609,258688.021,-213675.737,-55667.877
2.373000,-271.511,-27630.186,-33018.446,-30978.441
2.374000,106115.198,-384496.117,-162500.000,769.043
2.375000,3.004,0.143,-1141.787,-119089.365
2.376000,-288.963,-30704.308,-38153.410,-11304.140
2.377000,-75696.325,-132031.870,278381.300,-263171.387
2.378000,-199436.998,300000.000,387500.000,49980.974
2.379000,390.434,-114079.857,-298458.815,-238657.141
2.380000,-315.714,-36920.118,-45138.836,40274.334
2.381000,40602.112,-316383.600,-378515.625,11.444
2.382000,11.826,1.478,-10588.169,255029.154
2.383000,-335.455,-43964.863,-51797.581,57207.632
2.384000,-342.607,-45954.227,-52959.251,60433.626
2.385000,-281018.925,-187035.179,250488.281,0.000
2.386000,223437.691,373300.076,127069.235,250000.000
2.387000,-44922.304,-243133.974,173029.041,-9234.619
2.388000,-351.524,-53473.949,-55221.176,70746.613
2.389000,-352.621,-54534.912,-55287.647,72469.997
2.390000,-356.436,-55064.726,-55305.719,73940.659
2.391000,-356.865,-55088.043,-55259.752,75170.517
2.392000,-355.053,-54956.055,-55125.189,76164.770
2.393000,24988.890,48287.630,-226717.567,102404.308
2.394000,12.159,-90467.167,-357215.214,-399925.613
2.395000,98437.500,6247.234,118327.475,-162923.813
2.396000,4698.944,3.004,-22616.816,-224310.541
2.397000,2.289,11718.750,3123.617,140419.149
2.398000,0.000,2346.706,0.334,-2785.921
2.399000,0.000,0.286,2734.375,1561.785
2.400000,-343.418,-49585.915,-49741.936,74213.219
2.401000,108227.539,9.155,12.159,-85327.864
2.402000,24989.748,148629.236,223624.420,-247895.002
2.403000,-320.673,-42188.025,-42339.325,64808.035
2.404000,-81731.796,124528.313,0.000,2343.750
2.405000,3027.344,390.434,-120721.817,-360175.037
2.406000,-303.221,-36737.204,-36889.267,54110.479
2.407000,381241.369,64444.447,238684.320,-104687.500
2.408000,335070.801,0.000,-50000.000,199927.616
2.409000,12495.518,324519.300,387017.155,188092.136
2.410000,-281.191,-29036.522,-29018.402,24802.971
2.411000,-287602.758,-224954.033,-106250.000,2343.750
2.412000,9.155,12.159,-67114.639,370141.268
2.413000,-259.399,-22228.241,-20546.627,-24259.329
2.414000,-65600.920,178966.951,-399475.574,254504.395
2.415000,-30990.076,0.048,-200000.000,-243.425
2.416000,3124.046,153048.277,-393827.343,-131370.926
2.417000,1.478,-7719.469,172679.090,167704.678
2.418000,5468.750,3124.046,253047.895,346797.276
2.419000,2345.228,0.143,-976.229,-79762.125
2.420000,0.143,2343.798,-488.138,-39881.086
2.421000,0.048,-399999.857,-200000.000,-243.235
2.422000,0.000,0.000,-198535.156,399878.359
2.423000,0.000,0.000,300000.000,300000.000
2.424000,0.000,0.000,0.000,300192.261
2.425000,0.000,0.000,0.000,9.155
2.426000,-400000.000,0.000,0.000,0.000
2.427000,92626.953,0.000,0.000,0.000
2.428000,-187982.750,-162500.000,0.000,0.000
2.429000,-91073.751,-377804.565,0.000,0.000
2.430000,-137609.577,162379.169,-25000.000,0.000
2.431000,-222499.132,-239844.942,-247524.261,0.000
2.432000,-271.511,-27780.724,-33639.526,-30987.310
2.433000,-277.948,-28428.507,-35001.850,-30943.823
2.434000,358312.559,169726.563,0.143,-200000.000
2.435000,-200000.000,-292.587,-31005.478,-38861.132
2.436000,-295.830,-32104.683,-40223.789,2679.873
2.437000,268619.919,21713.066,206299.257,-265625.000
2.438000,150000.000,183.105,0.000,0.000
2.439000,-310.898,-37467.909,-45712.805,43013.859
2.440000,-316.620,-39059.734,-47476.101,47907.829
2.441000,-197314.453,206243.896,24.366,-170265.007
2.442000,-336.981,-44668.055,-52245.092,58376.122
2.443000,-341.368,-46665.764,-53333.235,61547.518
2.444000,48306.847,127014.923,75000.000,193750.000
2.445000,756.836,97.609,75384.188,-243756.771
2.446000,-352.907,-53916.216,-55397.987,71366.358
2.447000,153892.851,145494.270,182244.349,-178320.313
2.448000,-19528.198,0.000,189.209,24.366
2.449000,0.000,0.000,18.311,-25000.000
2.450000,0.000,0.000,0.000,75021.362
2.451000,0.000,0.000,0.000,9.155
2.452000,-350000.000,0.000,0.000,0.000
2.453000,172772.217,0.000,0.000,0.000
2.454000,-315322.256,293750.000,0.000,0.000
2.455000,380280.685,-184481.812,0.000,0.000
2.456000,110836.411,-388913.584,-331250.000,0.000
2.457000,-50492.859,-50651.312,75186.634,0.000
2.458000,207800.531,312683.296,-331818.008,-329882.813
2.459000,-337.839,-47141.600,-47298.431,71489.954
2.460000,-332.928,-45133.829,-45287.848,69009.972
2.461000,-326.729,-43279.219,-43432.713,66406.918
2.462000,-318.813,-41740.274,-41893.005,63863.325
2.463000,-317.860,-40426.540,-40576.410,61343.193
2.464000,-314.903,-38281.250,3123.760,-278272.533
2.465000,-304.699,-36210.823,-36363.220,52998.447
2.466000,-297.117,-34881.830,-35032.082,50071.049
2.467000,182520.247,49060.059,9.155,12.159
2.468000,96875.000,12495.565,99526.882,-250475.264
2.469000,-278.711,-28514.576,-28557.301,20050.907
2.470000,-26506.424,-25764.799,7029.009,0.000
2.471000,381250.000,1513.672,195.217,-280279.112
2.472000,-258.636,-22016.096,-21001.387,-27333.546
2.473000,-253.439,-21099.043,-20820.713,-30802.011
2.474000,335802.746,67797.852,0.000,-100000.000
2.475000,-25000.000,99969.578,-202486.849,-302506.161
2.476000,-246.048,-19931.793,-20089.960,-30934.334
2.477000,74921.751,-171953.869,-112620.783,103125.000
2.478000,12500.000,10.681,6.056,-30810.738
2.479000,-240.183,-20845.890,-21003.246,-30892.944
2.480000,-240.088,-21219.921,-21376.705,-30885.983
2.481000,-61951.017,23583.603,-17065.907,94543.457
2.482000,-243.855,-22527.695,-22688.007,-30877.542
2.483000,-246.382,-23478.603,-23638.535,-30884.981
2.484000,-246.859,-24331.427,-24491.787,-30886.030
2.485000,-248.432,-25386.572,-25549.030,-30894.375
2.486000,-249.147,-26831.484,-27000.618,-30906.677
2.487000,-253.677,-28033.447,-28732.014,-30924.797
2.488000,48.780,-266652.107,-267287.064,-199708.939
2.489000,-100000.000,399865.294,386224.842,-16271.591
2.490000,300094.604,12.159,-69653.749,13109.827
2.491000,9.155,387500.000,49982.643,198201.656
2.492000,0.000,37509.155,12.159,-71716.785
2.493000,0.000,9.155,48437.500,6247.759
2.494000,0.000,0.000,4699.326,1.478
2.495000,0.000,0.000,1.144,5468.750
2.496000,-299.549,-33882.380,-41615.725,16332.579
2.497000,-118644.047,356250.000,2880.859,195.217
2.498000,1.478,-10070.896,380294.704,122020.006
2.499000,-321.817,-39778.090,-47926.474,49261.379
2.500000,-246741.486,70374.298,-66613.770,0.000
2.501000,200000.000,-250000.000,199915.218,388623.095
2.502000,-341.177,-47518.206,-53419.924,62657.642
2.503000,-343.657,-49542.904,-54036.140,65475.416
2.504000,-371609.354,-356250.000,9.155,12.159
2.505000,12.159,-89844.608,-294898.319,284559.202
2.506000,-353.193,-54877.949,-55160.570,73543.739
2.507000,-54924.488,-55098.343,74838.543,0.048
2.508000,0.000,2343.750,3123.617,24786.234
2.509000,-353.765,-54582.834,-54747.343,77364.588
2.510000,-353.336,-54214.764,-54379.225,77668.715
2.511000,-284375.000,732.422,0.000,0.000
2.512000,-345.087,-52076.387,-52236.128,76731.014
2.513000,399828.291,374360.752,-25718.260,-362021.351
2.514000,12.159,-87635.088,-4456.377,-44444.704
2.515000,-25000.000,99957.418,-6049.538,-206068.802
2.516000,75021.362,12.159,-85279.036,104296.160
2.517000,9.155,96875.000,12494.850,-225694.370
2.518000,0.000,9386.444,3.004,-20669.746
2.519000,0.000,2.289,11718.750,3123.713
