t_s,ch1_uv
0.000000,3322.887
0.001000,3322.887
0.002000,3322.506
0.003000,3322.506
0.004000,3322.506
0.005000,3322.506
0.006000,3322.506
0.007000,3323.793
0.008000,3323.793
0.009000,3323.793
0.010000,3323.793
0.011000,3323.793
0.012000,3326.225
0.013000,3326.225
0.014000,3326.225
0.015000,3326.225
0.016000,3326.225
0.017000,3324.890
0.018000,3324.890
0.019000,3324.890
0.020000,3324.890
0.021000,3324.890
0.022000,3323.793
0.023000,3323.793
0.024000,3323.793
0.025000,3323.793
0.026000,3323.793
0.027000,3324.413
0.028000,3324.413
0.029000,3324.413
0.030000,3324.413
0.031000,3324.413
0.032000,3323.126
0.033000,3323.126
0.034000,3323.126
0.035000,0.000
0.036000,3315.592
0.037000,3315.592
0.038000,3315.592
0.039000,3315.592
0.040000,3315.592
0.041000,3317.165
0.042000,3317.165
0.043000,3317.165
0.044000,3317.165
0.045000,3317.165
0.046000,3319.454
0.047000,3319.454
0.048000,3319.454
0.049000,3319.454
0.050000,3319.454
0.051000,3322.029
0.052000,3322.029
0.053000,3322.029
0.054000,3322.029
0.055000,3322.029
0.056000,3323.364
0.057000,3323.364
0.058000,3323.364
0.059000,3323.364
0.060000,3323.364
0.061000,3324.223
0.062000,3324.223
0.063000,3324.223
0.064000,3324.223
0.065000,3322.792
0.066000,3322.792
0.067000,3322.792
0.068000,3322.792
0.069000,3314.877
0.070000,3314.877
0.071000,3314.877
0.072000,3314.877
0.073000,3314.877
0.074000,3316.402
0.075000,3316.402
0.076000,3316.402
0.077000,3316.402
0.078000,3316.402
0.079000,3318.739
0.080000,3318.739
0.081000,3318.739
0.082000,3318.739
0.083000,3318.739
0.084000,3321.457
0.085000,3321.457
0.086000,3321.457
0.087000,3321.457
0.088000,3321.457
0.089000,3320.360
0.090000,3320.360
0.091000,3320.360
0.092000,3320.360
0.093000,3320.360
0.094000,3321.791
0.095000,3321.791
0.096000,3321.791
0.097000,3321.791
0.098000,3321.362
0.099000,3321.362
0.100000,3321.362
0.101000,3321.362
0.102000,3321.362
0.103000,3320.169
0.104000,3320.169
0.105000,3320.169
0.106000,3320.169
0.107000,3320.169
0.108000,3320.265
0.109000,3320.265
0.110000,3320.265
0.111000,3320.265
0.112000,3320.265
0.113000,3318.977
0.114000,3318.977
0.115000,3318.977
0.116000,3318.977
0.117000,3318.977
0.118000,3315.496
0.119000,3315.496
0.120000,3315.496
0.121000,3315.496
0.122000,3322.363
0.123000,3322.363
0.124000,3322.363
0.125000,3322.363
0.126000,3322.363
0.127000,3323.841
0.128000,3323.841
0.129000,3323.841
0.130000,3323.841
0.131000,3320.456
0.132000,3320.456
0.133000,3320.456
0.134000,3320.456
0.135000,3320.456
0.136000,3320.742
0.137000,3320.742
0.138000,3320.742
0.139000,3320.742
0.140000,3320.742
0.141000,3318.262
0.142000,3318.262
0.143000,3318.262
0.144000,3318.262
0.145000,3318.262
0.146000,3312.969
0.147000,3312.969
0.148000,3312.969
0.149000,3312.969
0.150000,3312.969
0.151000,3314.447
0.152000,3314.447
0.153000,3314.447
0.154000,3314.447
0.155000,3314.447
0.156000,3321.218
0.157000,3321.218
0.158000,3321.218
0.159000,3321.218
0.160000,0.000
0.161000,3319.979
0.162000,3319.979
0.163000,3319.979
0.164000,3319.979
0.165000,3319.979
0.166000,3325.701
0.167000,3325.701
0.168000,3325.701
0.169000,3325.701
0.170000,3325.701
0.171000,3319.931
0.172000,3319.931
0.173000,3319.931
0.174000,3319.931
0.175000,3319.931
0.176000,3319.025
0.177000,3319.025
0.178000,3319.025
0.179000,3319.025
0.180000,3319.025
0.181000,3314.877
0.182000,3314.877
0.183000,3314.877
0.184000,3314.877
0.185000,3314.877
0.186000,3315.115
0.187000,3315.115
0.188000,3315.115
0.189000,3315.115
0.190000,3315.115
0.191000,3317.165
0.192000,3317.165
0.193000,3317.165
0.194000,3317.165
0.195000,3326.941
0.196000,3326.941
0.197000,3326.941
0.198000,3326.941
0.199000,3326.941
0.200000,3328.085
0.201000,3328.085
0.202000,3328.085
0.203000,3328.085
0.204000,3328.085
0.205000,3324.318
0.206000,3324.318
0.207000,3324.318
0.208000,3324.318
0.209000,3324.318
0.210000,3322.220
0.211000,3322.220
0.212000,3322.220
0.213000,3322.220
0.214000,3322.220
0.215000,3321.648
0.216000,3321.648
0.217000,3321.648
0.218000,3321.648
0.219000,3321.648
0.220000,3321.218
0.221000,3321.218
0.222000,3321.218
0.223000,3321.218
0.224000,0.000
0.225000,3322.220
0.226000,3322.220
0.227000,3322.220
0.228000,3322.220
0.229000,3322.220
0.230000,3326.464
0.231000,3326.464
0.232000,3326.464
0.233000,3326.464
0.234000,3326.464
0.235000,3327.656
0.236000,3327.656
0.237000,3327.656
0.238000,3327.656
0.239000,3327.656
0.240000,3325.033
0.241000,3325.033
0.242000,3325.033
0.243000,3325.033
0.244000,3325.033
0.245000,3321.457
0.246000,3321.457
0.247000,3321.457
0.248000,3321.457
0.249000,3321.457
0.250000,3320.837
0.251000,3320.837
0.252000,3320.837
0.253000,3320.837
0.254000,3320.837
0.255000,3319.168
0.256000,3319.168
0.257000,3319.168
0.258000,3319.168
0.259000,3318.214
0.260000,3318.214
0.261000,3318.214
0.262000,3318.214
0.263000,3318.214
0.264000,3321.028
0.265000,3321.028
0.266000,3321.028
0.267000,3321.028
0.268000,3321.028
0.269000,3319.836
0.270000,3319.836
0.271000,3319.836
0.272000,3319.836
0.273000,3319.836
0.274000,3321.123
0.275000,3321.123
0.276000,3321.123
0.277000,3321.123
0.278000,3321.123
0.279000,3321.552
0.280000,3321.552
0.281000,3321.552
0.282000,3321.552
0.283000,3321.552
0.284000,3323.030
0.285000,3323.030
0.286000,3323.030
0.287000,3323.030
0.288000,0.000
0.289000,3327.179
0.290000,3327.179
0.291000,3327.179
0.292000,3327.179
0.293000,-400000.000
0.294000,3318.119
0.295000,3318.119
0.296000,3318.119
0.297000,3318.119
0.298000,3318.119
0.299000,3320.122
0.300000,3320.122
0.301000,3320.122
0.302000,3320.122
0.303000,3320.122
0.304000,3321.314
0.305000,3321.314
0.306000,3321.314
0.307000,3321.314
0.308000,3321.314
0.309000,3320.742
0.310000,3320.742
0.311000,3320.742
0.312000,3320.742
0.313000,3320.742
0.314000,3319.550
0.315000,3319.550
0.316000,3319.550
0.317000,3319.550
0.318000,3319.550
0.319000,3325.272
0.320000,3325.272
0.321000,3325.272
0.322000,3325.272
0.323000,0.000
0.324000,0.000
0.325000,0.000
0.326000,0.000
0.327000,0.000
0.328000,3320.169
0.329000,3320.169
0.330000,3320.169
0.331000,3320.169
0.332000,3320.169
0.333000,3314.686
0.334000,3314.686
0.335000,3314.686
0.336000,3314.686
0.337000,3314.686
0.338000,3314.638
0.339000,3314.638
0.340000,3314.638
0.341000,3314.638
0.342000,3314.638
0.343000,3316.355
0.344000,3316.355
0.345000,3316.355
0.346000,3316.355
0.347000,3316.355
0.348000,3317.976
0.349000,3317.976
0.350000,3317.976
0.351000,3317.976
0.352000,12.970
0.353000,0.000
0.354000,0.000
0.355000,0.000
0.356000,0.000
0.357000,0.000
0.358000,0.000
0.359000,0.000
0.360000,0.000
0.361000,0.000
0.362000,0.000
0.363000,3320.026
0.364000,3320.026
0.365000,3320.026
0.366000,3320.026
0.367000,3320.026
0.368000,3316.212
0.369000,3316.212
0.370000,3316.212
0.371000,3316.212
0.372000,3316.212
0.373000,3313.684
0.374000,3313.684
0.375000,3313.684
0.376000,3313.684
0.377000,3313.684
0.378000,3315.878
0.379000,3315.878
0.380000,3315.878
0.381000,3315.878
0.382000,3315.878
0.383000,3318.262
0.384000,3318.262
0.385000,3318.262
0.386000,3318.262
0.387000,3326.654
0.388000,3326.654
0.389000,3326.654
0.390000,3326.654
0.391000,3326.654
0.392000,3324.604
0.393000,3324.604
0.394000,3324.604
0.395000,3324.604
0.396000,3324.604
0.397000,3323.269
0.398000,3323.269
0.399000,3323.269
0.400000,3323.269
0.401000,3323.269
0.402000,3322.840
0.403000,3322.840
0.404000,3322.840
0.405000,3322.840
0.406000,3322.840
0.407000,3321.600
0.408000,3321.600
0.409000,3321.600
0.410000,3321.600
0.411000,3321.600
0.412000,3315.878
0.413000,3315.878
0.414000,3315.878
0.415000,3315.878
0.416000,0.000
0.417000,3318.119
0.418000,3318.119
0.419000,3318.119
0.420000,3318.119
0.421000,3318.119
0.422000,3327.322
0.423000,3327.322
0.424000,3327.322
0.425000,3327.322
0.426000,3327.322
0.427000,3325.844
0.428000,3325.844
0.429000,3325.844
0.430000,3325.844
0.431000,3325.844
0.432000,3322.172
0.433000,3322.172
0.434000,3322.172
0.435000,3322.172
0.436000,3322.172
0.437000,3321.838
0.438000,3321.838
0.439000,3321.838
0.440000,3321.838
0.441000,3321.838
0.442000,3320.646
0.443000,3320.646
0.444000,3320.646
0.445000,3320.646
0.446000,3320.646
0.447000,3320.503
0.448000,3320.503
0.449000,3320.503
0.450000,3320.503
0.451000,3320.360
0.452000,3320.360
0.453000,3320.360
0.454000,3320.360
0.455000,3320.360
0.456000,3320.408
0.457000,3320.408
0.458000,3320.408
0.459000,3320.408
0.460000,3320.408
0.461000,3322.029
0.462000,3322.029
0.463000,3322.029
0.464000,3322.029
0.465000,3322.029
0.466000,3322.649
0.467000,3322.649
0.468000,3322.649
0.469000,3322.649
0.470000,3322.649
0.471000,3324.175
0.472000,3324.175
0.473000,3324.175
0.474000,3324.175
0.475000,3324.175
0.476000,3322.029
0.477000,3322.029
0.478000,3322.029
0.479000,3322.029
0.480000,0.000
0.481000,3319.693
0.482000,3319.693
0.483000,3319.693
0.484000,3319.693
0.485000,3319.693
0.486000,3317.261
0.487000,3317.261
0.488000,3317.261
0.489000,3317.261
0.490000,3317.261
0.491000,3319.836
0.492000,3319.836
0.493000,3319.836
0.494000,3319.836
0.495000,3319.836
0.496000,3321.457
0.497000,3321.457
0.498000,3321.457
0.499000,3321.457
0.500000,3321.457
0.501000,3321.600
0.502000,3321.600
0.503000,3321.600
0.504000,3321.600
0.505000,3321.600
0.506000,3325.367
0.507000,3325.367
0.508000,3325.367
0.509000,3325.367
0.510000,3325.367
0.511000,3327.656
0.512000,3327.656
0.513000,3327.656
0.514000,3327.656
0.515000,3320.408
0.516000,3320.408
0.517000,3320.408
0.518000,3320.408
0.519000,3320.408
0.520000,3315.258
0.521000,3315.258
0.522000,3315.258
0.523000,3315.258
0.524000,3315.258
0.525000,3319.120
0.526000,3319.120
0.527000,3319.120
0.528000,3319.120
0.529000,3319.120
0.530000,3321.218
0.531000,3321.218
0.532000,3321.218
0.533000,3321.218
0.534000,3321.218
0.535000,3320.742
0.536000,3320.742
0.537000,3320.742
0.538000,3320.742
0.539000,3320.742
0.540000,3321.362
0.541000,3321.362
0.542000,3321.362
0.543000,3321.362
0.544000,0.000
0.545000,3326.082
0.546000,3326.082
0.547000,3326.082
0.548000,3326.082
0.549000,3326.082
0.550000,3320.074
0.551000,3320.074
0.552000,3320.074
0.553000,3320.074
0.554000,3320.074
0.555000,3316.545
0.556000,3316.545
0.557000,3316.545
0.558000,3316.545
0.559000,3316.545
0.560000,3313.923
0.561000,3313.923
0.562000,3313.923
0.563000,3313.923
0.564000,3313.923
0.565000,3315.592
0.566000,3315.592
0.567000,3315.592
0.568000,3315.592
0.569000,3315.592
0.570000,3317.022
0.571000,3317.022
0.572000,3317.022
0.573000,3317.022
0.574000,3317.022
0.575000,3319.550
0.576000,3319.550
0.577000,3319.550
0.578000,3319.550
0.579000,3325.939
0.580000,3325.939
0.581000,3325.939
0.582000,3325.939
0.583000,3325.939
0.584000,3319.597
0.585000,3319.597
0.586000,3319.597
0.587000,3319.597
0.588000,3319.597
0.589000,3318.357
0.590000,3318.357
0.591000,3318.357
0.592000,3318.357
0.593000,3318.357
0.594000,3313.494
0.595000,3313.494
0.596000,3313.494
0.597000,3313.494
0.598000,3313.494
0.599000,3314.543
0.600000,3314.543
0.601000,3314.543
0.602000,3314.543
0.603000,3314.543
0.604000,3317.213
0.605000,3317.213
0.606000,3317.213
0.607000,3317.213
0.608000,0.000
0.609000,3318.119
0.610000,3318.119
0.611000,3318.119
0.612000,3318.119
0.613000,3318.119
0.614000,3328.562
0.615000,3328.562
0.616000,3328.562
0.617000,3328.562
0.618000,3328.562
0.619000,3325.605
0.620000,3325.605
0.621000,3325.605
0.622000,3325.605
0.623000,3325.605
0.624000,3324.747
0.625000,3324.747
0.626000,3324.747
0.627000,3324.747
0.628000,3324.747
0.629000,3322.411
0.630000,3322.411
0.631000,3322.411
0.632000,3322.411
0.633000,3322.411
0.634000,3320.932
0.635000,3320.932
0.636000,3320.932
0.637000,3320.932
0.638000,3320.932
0.639000,3320.694
0.640000,3320.694
0.641000,3320.694
0.642000,3320.694
0.643000,3325.987
0.644000,3325.987
0.645000,3325.987
0.646000,3325.987
0.647000,3325.987
0.648000,3325.748
0.649000,3325.748
0.650000,3325.748
0.651000,3325.748
0.652000,3325.748
0.653000,3325.367
0.654000,3325.367
0.655000,3325.367
0.656000,3325.367
0.657000,3325.367
0.658000,3321.838
0.659000,3321.838
0.660000,3321.838
0.661000,3321.838
0.662000,3321.838
0.663000,3320.503
0.664000,3320.503
0.665000,3320.503
0.666000,3320.503
0.667000,3320.503
0.668000,3318.691
0.669000,3318.691
0.670000,3318.691
0.671000,3318.691
0.672000,0.000
0.673000,3316.593
0.674000,3316.593
0.675000,3316.593
0.676000,3316.593
0.677000,3316.593
0.678000,0.000
0.679000,0.000
0.680000,0.000
0.681000,0.000
0.682000,0.000
0.683000,3322.887
0.684000,3322.887
0.685000,3322.887
0.686000,3322.887
0.687000,3322.887
0.688000,3320.503
0.689000,3320.503
0.690000,3320.503
0.691000,3320.503
0.692000,3320.503
0.693000,3322.268
0.694000,3322.268
0.695000,3322.268
0.696000,3322.268
0.697000,3322.268
0.698000,3326.464
0.699000,3326.464
0.700000,3326.464
0.701000,3326.464
0.702000,3326.464
0.703000,3323.936
0.704000,3323.936
0.705000,3323.936
0.706000,3324.080
0.707000,3317.833
0.708000,3317.833
0.709000,3317.833
0.710000,3317.833
0.711000,3317.833
0.712000,3318.644
0.713000,3318.644
0.714000,3318.644
0.715000,3318.644
0.716000,3318.644
0.717000,3318.691
0.718000,3318.691
0.719000,3318.691
0.720000,3318.691
0.721000,3318.691
0.722000,3320.122
0.723000,3320.122
0.724000,3320.122
0.725000,3320.122
0.726000,3320.122
0.727000,3323.317
0.728000,3323.317
0.729000,3323.317
0.730000,3323.317
0.731000,3323.317
0.732000,3324.938
0.733000,3324.938
0.734000,3324.938
0.735000,3324.938
0.736000,0.000
0.737000,3327.274
0.738000,3327.274
0.739000,3327.274
0.740000,3327.274
0.741000,3327.274
0.742000,3319.025
0.743000,3319.025
0.744000,3319.025
0.745000,3319.025
0.746000,3319.025
0.747000,3317.499
0.748000,3317.499
0.749000,3317.499
0.750000,3317.499
0.751000,3317.499
0.752000,3312.874
0.753000,3312.874
0.754000,3312.874
0.755000,3312.874
0.756000,3312.874
0.757000,3315.592
0.758000,3315.592
0.759000,3315.592
0.760000,3315.592
0.761000,3315.592
0.762000,3318.262
0.763000,3318.262
0.764000,3318.262
0.765000,3318.262
0.766000,3318.262
0.767000,3319.645
0.768000,3319.645
0.769000,3319.645
0.770000,3319.931
0.771000,3321.075
0.772000,3321.075
0.773000,3321.075
0.774000,3321.075
0.775000,3321.075
0.776000,3319.597
0.777000,3319.597
0.778000,3319.597
0.779000,3319.597
0.780000,3319.597
0.781000,3319.168
0.782000,3319.168
0.783000,3319.168
0.784000,3319.168
0.785000,3319.168
0.786000,3314.686
0.787000,3314.686
0.788000,3314.686
0.789000,3314.686
0.790000,3314.686
0.791000,3315.592
0.792000,3315.592
0.793000,3315.592
0.794000,3315.592
0.795000,3315.592
0.796000,3317.356
0.797000,3317.356
0.798000,3317.356
0.799000,3317.356
0.800000,0.000
0.801000,3319.216
0.802000,3319.216
0.803000,3319.216
0.804000,3319.216
0.805000,3319.216
0.806000,3328.133
0.807000,3328.133
0.808000,3328.133
0.809000,3328.133
0.810000,3328.133
0.811000,3326.702
0.812000,3326.702
0.813000,3326.702
0.814000,3326.702
0.815000,3326.702
0.816000,3323.984
0.817000,3323.984
0.818000,3323.984
0.819000,3323.984
0.820000,3323.984
0.821000,3323.746
0.822000,3323.746
0.823000,3323.746
0.824000,3323.746
0.825000,3323.746
0.826000,3323.030
0.827000,3323.030
0.828000,3323.030
0.829000,3323.030
0.830000,3323.030
0.831000,3315.401
0.832000,3315.401
0.833000,3315.401
0.834000,3315.401
0.835000,3322.744
0.836000,3322.744
0.837000,3322.744
0.838000,3322.744
0.839000,3322.744
0.840000,3327.036
0.841000,3327.036
0.842000,3327.036
0.843000,3327.036
0.844000,3327.036
0.845000,3326.893
0.846000,3326.893
0.847000,3326.893
0.848000,3326.893
0.849000,3326.893
0.850000,3324.747
0.851000,3324.747
0.852000,3324.747
0.853000,3324.747
0.854000,3324.747
0.855000,3322.840
0.856000,3322.840
0.857000,3322.840
0.858000,3322.840
0.859000,3322.840
0.860000,3320.694
0.861000,3320.694
0.862000,3320.694
0.863000,3320.694
0.864000,0.000
0.865000,3320.408
0.866000,3320.408
0.867000,3320.408
0.868000,3320.408
0.869000,3320.408
0.870000,3319.168
0.871000,3319.168
0.872000,3319.168
0.873000,3319.168
0.874000,3319.168
0.875000,3320.169
0.876000,3320.169
0.877000,3320.169
0.878000,3320.169
0.879000,3320.169
0.880000,3322.315
0.881000,3322.315
0.882000,3322.315
0.883000,3322.315
0.884000,3322.315
0.885000,3323.126
0.886000,3323.126
0.887000,3323.126
0.888000,3323.126
0.889000,3323.126
0.890000,3323.650
0.891000,3323.650
0.892000,3323.650
0.893000,3323.650
0.894000,3323.650
0.895000,3323.603
0.896000,3323.603
0.897000,3323.603
0.898000,3323.603
0.899000,3318.453
0.900000,3318.453
0.901000,3318.453
0.902000,3318.453
0.903000,3318.453
0.904000,3318.644
0.905000,3318.644
0.906000,3318.644
0.907000,3318.644
0.908000,3318.644
0.909000,3320.360
0.910000,3320.360
0.911000,3320.360
0.912000,3320.360
0.913000,3320.360
0.914000,3321.218
0.915000,3321.218
0.916000,3321.218
0.917000,3321.218
0.918000,3321.218
0.919000,3323.841
0.920000,3323.841
0.921000,3323.841
0.922000,3323.841
0.923000,3323.841
0.924000,3322.268
0.925000,3322.268
0.926000,3322.268
0.927000,3322.268
0.928000,0.000
0.929000,3325.748
0.930000,3325.748
0.931000,3325.748
0.932000,3325.748
0.933000,3325.748
0.934000,3318.357
0.935000,3318.357
0.936000,3318.357
0.937000,3318.357
0.938000,3318.357
0.939000,3319.263
0.940000,3319.263
0.941000,3319.263
0.942000,3319.263
0.943000,3319.263
0.944000,3316.307
0.945000,3316.307
0.946000,3316.307
0.947000,3316.307
0.948000,3316.307
0.949000,3322.124
0.950000,3322.124
0.951000,3322.124
0.952000,3322.124
0.953000,3322.124
0.954000,3321.314
0.955000,3321.314
0.956000,3321.314
0.957000,3321.314
0.958000,3321.314
0.959000,3325.129
0.960000,3325.129
0.961000,3325.129
0.962000,3325.129
0.963000,3406.286
0.964000,3406.286
0.965000,3406.286
0.966000,3406.286
0.967000,3406.286
0.968000,3415.632
0.969000,3415.632
0.970000,3415.632
0.971000,3415.632
0.972000,3415.632
0.973000,3416.967
0.974000,3416.967
0.975000,3416.967
0.976000,3416.967
0.977000,3416.967
0.978000,3414.774
0.979000,3414.774
0.980000,3414.774
0.981000,3414.774
0.982000,3414.774
0.983000,3435.326
0.984000,3435.326
0.985000,3435.326
0.986000,3435.326
0.987000,3435.326
0.988000,3458.738
0.989000,3458.738
0.990000,3458.738
0.991000,3458.738
0.992000,0.000
0.993000,3485.823
0.994000,3485.823
0.995000,3485.823
0.996000,3485.823
0.997000,3485.823
0.998000,3588.390
0.999000,3588.390
1.000000,3588.390
1.001000,3588.390
1.002000,3588.390
1.003000,3579.044
1.004000,3579.044
1.005000,3579.044
1.006000,3579.044
1.007000,3579.044
1.008000,3579.664
1.009000,3579.664
1.010000,3579.664
1.011000,3579.664
1.012000,3579.664
1.013000,3576.851
1.014000,3576.851
1.015000,3576.851
1.016000,3576.851
1.017000,3576.851
1.018000,3577.280
1.019000,3577.280
1.020000,3577.280
1.021000,3577.280
1.022000,3577.280
1.023000,3579.283
1.024000,3579.283
1.025000,3579.283
1.026000,3579.283
1.027000,3412.962
1.028000,3412.962
1.029000,3412.962
1.030000,3412.962
1.031000,3412.962
1.032000,3399.658
1.033000,3399.658
1.034000,3399.658
1.035000,3399.658
1.036000,3399.658
1.037000,3384.972
1.038000,3384.972
1.039000,3384.972
1.040000,3384.972
1.041000,3384.972
1.042000,3373.766
1.043000,3373.766
1.044000,3373.766
1.045000,3373.766
1.046000,3373.766
1.047000,3372.955
1.048000,3372.955
1.049000,3372.955
1.050000,3372.955
1.051000,3372.955
1.052000,3370.667
1.053000,3370.667
1.054000,3370.667
1.055000,3370.667
1.056000,0.000
1.057000,3321.695
1.058000,3321.695
1.059000,3321.695
1.060000,3321.695
1.061000,3321.695
1.062000,3327.560
1.063000,3327.560
1.064000,3327.560
1.065000,3327.560
1.066000,3327.560
1.067000,3327.036
1.068000,3327.036
1.069000,3327.036
1.070000,3327.036
1.071000,3327.036
1.072000,3325.129
1.073000,3325.129
1.074000,3325.129
1.075000,3325.129
1.076000,3325.129
1.077000,3324.318
1.078000,3324.318
1.079000,3324.318
1.080000,3324.318
1.081000,3324.318
1.082000,3322.268
1.083000,3322.268
1.084000,3322.268
1.085000,3322.268
1.086000,3322.268
1.087000,3320.646
1.088000,3320.646
1.089000,3320.646
1.090000,3320.646
1.091000,3320.503
1.092000,3320.503
1.093000,3320.503
1.094000,3320.503
1.095000,3320.503
1.096000,3319.883
1.097000,3319.883
1.098000,3319.883
1.099000,3319.883
1.100000,3319.883
1.101000,3321.075
1.102000,3321.075
1.103000,3321.075
1.104000,3321.075
1.105000,3321.075
1.106000,3321.648
1.107000,3321.648
1.108000,3321.648
1.109000,3321.648
1.110000,3321.648
1.111000,3322.220
1.112000,3322.220
1.113000,3322.220
1.114000,3322.220
1.115000,3322.220
1.116000,3324.652
1.117000,3324.652
1.118000,3324.652
1.119000,3324.652
1.120000,0.000
1.121000,3326.178
1.122000,3326.178
1.123000,3326.178
1.124000,3326.178
1.125000,0.000
1.126000,3320.599
1.127000,3320.599
1.128000,3320.599
1.129000,3320.599
1.130000,3320.599
1.131000,3321.552
1.132000,3321.552
1.133000,3321.552
1.134000,3321.552
1.135000,3321.552
1.136000,3322.172
1.137000,3322.172
1.138000,3322.172
1.139000,3322.172
1.140000,3322.172
1.141000,3320.360
1.142000,3320.360
1.143000,3320.360
1.144000,3320.360
1.145000,3320.360
1.146000,3322.411
1.147000,3322.411
1.148000,3322.411
1.149000,3322.411
1.150000,3322.411
1.151000,3304.100
1.152000,3304.100
1.153000,3304.100
1.154000,3304.100
1.155000,3774.738
1.156000,3774.738
1.157000,3774.738
1.158000,3774.738
1.159000,3774.738
1.160000,3832.197
1.161000,3832.197
1.162000,3832.197
1.163000,3832.197
1.164000,3832.197
1.165000,3902.674
1.166000,3902.674
1.167000,3902.674
1.168000,3902.674
1.169000,3902.674
1.170000,3976.822
1.171000,3976.822
1.172000,3976.822
1.173000,3976.822
1.174000,3976.822
1.175000,4061.747
1.176000,4061.747
1.177000,4061.747
1.178000,4061.747
1.179000,4061.747
1.180000,4410.887
1.181000,4410.887
1.182000,4410.887
1.183000,4410.887
1.184000,0.000
1.185000,4550.457
1.186000,4550.457
1.187000,4550.457
1.188000,4550.457
1.189000,4550.457
1.190000,3534.746
1.191000,3534.746
1.192000,3534.746
1.193000,3534.746
1.194000,3534.746
1.195000,3471.899
1.196000,3471.899
1.197000,3471.899
1.198000,3471.899
1.199000,3471.899
1.200000,3412.151
1.201000,3412.151
1.202000,3412.151
1.203000,3412.151
1.204000,3412.151
1.205000,3333.616
1.206000,3333.616
1.207000,3333.616
1.208000,3333.616
1.209000,3333.616
1.210000,3254.128
1.211000,3254.128
1.212000,3254.128
1.213000,3254.128
1.214000,3254.128
1.215000,3194.380
1.216000,3194.380
1.217000,3194.380
1.218000,3194.380
1.219000,3323.412
1.220000,3323.412
1.221000,3323.412
1.222000,3323.412
1.223000,3323.412
1.224000,3323.460
1.225000,3323.460
1.226000,3323.460
1.227000,3323.460
1.228000,3323.460
1.229000,3324.318
1.230000,3324.318
1.231000,3324.318
1.232000,3324.318
1.233000,3324.318
1.234000,3321.886
1.235000,3321.886
1.236000,3321.886
1.237000,3321.886
1.238000,3321.886
1.239000,3317.976
1.240000,3317.976
1.241000,3317.976
1.242000,3317.976
1.243000,3317.976
1.244000,3319.597
1.245000,3319.597
1.246000,3319.597
1.247000,3319.597
1.248000,0.000
1.249000,3319.645
1.250000,3319.645
1.251000,3319.645
1.252000,3319.645
1.253000,3319.645
1.254000,3325.844
1.255000,3325.844
1.256000,3325.844
1.257000,3325.844
1.258000,3325.844
1.259000,3323.460
1.260000,3323.460
1.261000,3323.460
1.262000,3323.460
1.263000,3323.460
1.264000,3323.746
1.265000,3323.746
1.266000,3323.746
1.267000,3323.746
1.268000,3323.746
1.269000,3323.078
1.270000,3323.078
1.271000,3323.078
1.272000,3323.078
1.273000,3323.078
1.274000,3321.409
1.275000,3321.409
1.276000,3321.409
1.277000,3321.409
1.278000,3321.409
1.279000,3321.695
1.280000,3321.695
1.281000,3321.695
1.282000,3321.695
1.283000,3320.742
1.284000,3320.742
1.285000,3320.742
1.286000,3320.742
1.287000,3320.742
1.288000,3320.837
1.289000,3320.837
1.290000,3320.837
1.291000,3320.837
1.292000,3320.837
1.293000,3321.075
1.294000,3321.075
1.295000,3321.075
1.296000,3321.075
1.297000,3321.075
1.298000,3322.744
1.299000,3322.744
1.300000,3322.744
1.301000,3322.744
1.302000,3322.744
1.303000,3322.315
1.304000,3322.315
1.305000,3322.315
1.306000,3322.315
1.307000,3322.315
1.308000,3321.266
1.309000,3321.266
1.310000,3321.266
1.311000,3321.266
1.312000,0.000
1.313000,3320.694
1.314000,3320.694
1.315000,3320.694
1.316000,3320.694
1.317000,3320.694
1.318000,3320.026
1.319000,3320.026
1.320000,3320.026
1.321000,3320.026
1.322000,3320.026
1.323000,3321.934
1.324000,3321.934
1.325000,3321.934
1.326000,3321.934
1.327000,3321.934
1.328000,3320.599
1.329000,3320.599
1.330000,3320.599
1.331000,3320.599
1.332000,3320.599
1.333000,3322.554
1.334000,3322.554
1.335000,3322.554
1.336000,3322.554
1.337000,3322.554
1.338000,3326.368
1.339000,3326.368
1.340000,3326.368
1.341000,3326.368
1.342000,3326.368
1.343000,3325.844
1.344000,3325.844
1.345000,3325.844
1.346000,3325.844
1.347000,3321.123
1.348000,3321.123
1.349000,3321.123
1.350000,3321.123
1.351000,3321.123
1.352000,3315.401
1.353000,3315.401
1.354000,3315.401
1.355000,3315.401
1.356000,3315.401
1.357000,3322.029
1.358000,3322.029
1.359000,3322.029
1.360000,3322.029
1.361000,3322.029
1.362000,3322.744
1.363000,3322.744
1.364000,3322.744
1.365000,3322.744
1.366000,3322.744
1.367000,3322.554
1.368000,3322.554
1.369000,3322.554
1.370000,3322.554
1.371000,3322.554
1.372000,3326.082
1.373000,3326.082
1.374000,3326.082
1.375000,3326.082
1.376000,0.000
1.377000,3325.129
1.378000,3325.129
1.379000,3325.129
1.380000,3325.129
1.381000,3325.129
1.382000,3395.891
1.383000,3395.891
1.384000,3395.891
1.385000,3395.891
1.386000,3395.891
1.387000,3391.933
1.388000,3391.933
1.389000,3391.933
1.390000,3391.933
1.391000,3391.933
1.392000,3402.138
1.393000,3402.138
1.394000,3402.138
1.395000,3402.138
1.396000,3402.138
1.397000,3415.585
1.398000,3415.585
1.399000,3415.585
1.400000,3415.585
1.401000,3415.585
1.402000,3415.298
1.403000,3415.298
1.404000,3415.298
1.405000,3415.298
1.406000,3415.298
1.407000,3417.873
1.408000,3417.873
1.409000,3417.873
1.410000,3417.873
1.411000,3621.531
1.412000,3621.531
1.413000,3621.531
1.414000,3621.531
1.415000,3621.531
1.416000,3650.808
1.417000,3650.808
1.418000,3650.808
1.419000,3650.808
1.420000,3650.808
1.421000,3649.092
1.422000,3649.092
1.423000,3649.092
1.424000,3649.092
1.425000,3649.092
1.426000,3645.849
1.427000,3645.849
1.428000,3645.849
1.429000,3645.849
1.430000,3645.849
1.431000,3669.167
1.432000,3669.167
1.433000,3669.167
1.434000,3669.167
1.435000,3669.167
1.436000,3693.962
1.437000,3693.962
1.438000,3693.962
1.439000,3693.962
1.440000,0.000
1.441000,3696.775
1.442000,3696.775
1.443000,3696.775
1.444000,3696.775
1.445000,3696.775
1.446000,3797.817
1.447000,3797.817
1.448000,3797.817
1.449000,3797.817
1.450000,3797.817
1.451000,3796.482
1.452000,3796.482
1.453000,3796.482
1.454000,3796.482
1.455000,3796.482
1.456000,3794.718
1.457000,3794.718
1.458000,3794.718
1.459000,3794.718
1.460000,3794.718
1.461000,3793.907
1.462000,3793.907
1.463000,3793.907
1.464000,3793.907
1.465000,3793.907
1.466000,3790.998
1.467000,3790.998
1.468000,3790.998
1.469000,3790.998
1.470000,3790.998
1.471000,3790.236
1.472000,3790.236
1.473000,3790.236
1.474000,3790.236
1.475000,3752.375
1.476000,3752.375
1.477000,3752.375
1.478000,3752.375
1.479000,3752.375
1.480000,3752.565
1.481000,3752.565
1.482000,3752.565
1.483000,3752.565
1.484000,3752.565
1.485000,3749.084
1.486000,3749.084
1.487000,3749.084
1.488000,3749.084
1.489000,3749.084
1.490000,3748.798
1.491000,3748.798
1.492000,3748.798
1.493000,3748.798
1.494000,3748.798
1.495000,3747.272
1.496000,3747.272
1.497000,3747.272
1.498000,3747.272
1.499000,3747.272
1.500000,3732.395
1.501000,3732.395
1.502000,3732.395
1.503000,3732.395
1.504000,0.000
1.505000,3719.807
1.506000,3719.807
1.507000,3719.807
1.508000,3719.807
1.509000,3719.807
1.510000,0.000
1.511000,0.000
1.512000,0.000
1.513000,0.000
1.514000,0.000
1.515000,3536.844
1.516000,3536.844
1.517000,3536.844
1.518000,3536.844
1.519000,3536.844
1.520000,3535.557
1.521000,3535.557
1.522000,3535.557
1.523000,3535.557
1.524000,3535.557
1.525000,3533.268
1.526000,3533.268
1.527000,3533.268
1.528000,3533.268
1.529000,3533.268
1.530000,3525.925
1.531000,3525.925
1.532000,3525.925
1.533000,3525.925
1.534000,3525.925
1.535000,3515.673
1.536000,3515.673
1.537000,3515.673
1.538000,3515.673
1.539000,3319.073
1.540000,3319.073
1.541000,3319.073
1.542000,3319.073
1.543000,3319.073
1.544000,3320.074
1.545000,3320.074
1.546000,3320.074
1.547000,3320.074
1.548000,3320.074
1.549000,3321.218
1.550000,3321.218
1.551000,3321.218
1.552000,3321.218
1.553000,3321.218
1.554000,3322.268
1.555000,3322.268
1.556000,3322.268
1.557000,3322.268
1.558000,3322.268
1.559000,3322.268
1.560000,3322.268
1.561000,3322.268
1.562000,3322.268
1.563000,3322.268
1.564000,3325.129
1.565000,3325.129
1.566000,3325.129
1.567000,3325.129
1.568000,0.000
1.569000,3324.604
1.570000,3324.604
1.571000,3324.604
1.572000,3324.604
1.573000,3324.604
1.574000,3320.408
1.575000,3320.408
1.576000,3320.408
1.577000,3320.408
1.578000,3320.408
1.579000,3317.070
1.580000,3317.070
1.581000,3317.070
1.582000,3317.070
1.583000,3317.070
1.584000,3314.161
1.585000,3314.161
1.586000,3314.161
1.587000,3314.161
1.588000,3314.161
1.589000,3317.738
1.590000,3317.738
1.591000,3317.738
1.592000,3317.738
1.593000,3317.738
1.594000,3318.644
1.595000,3318.644
1.596000,3318.644
1.597000,3318.644
1.598000,3318.644
1.599000,3320.980
1.600000,3320.980
1.601000,3320.980
1.602000,3331.327
1.603000,3320.408
1.604000,3320.408
1.605000,3320.408
1.606000,3320.408
1.607000,3320.408
1.608000,3319.931
1.609000,3319.931
1.610000,3319.931
1.611000,3319.931
1.612000,3319.931
1.613000,3318.596
1.614000,3318.596
1.615000,3318.596
1.616000,3318.596
1.617000,3318.596
1.618000,3314.352
1.619000,3314.352
1.620000,3314.352
1.621000,3314.352
1.622000,3314.352
1.623000,3314.686
1.624000,3314.686
1.625000,3314.686
1.626000,3314.686
1.627000,3314.686
1.628000,3317.308
1.629000,3317.308
1.630000,3317.308
1.631000,3317.308
1.632000,0.000
1.633000,3320.646
1.634000,3320.646
1.635000,3320.646
1.636000,3320.646
1.637000,3320.646
1.638000,3325.415
1.639000,3325.415
1.640000,3325.415
1.641000,3325.415
1.642000,3325.415
1.643000,3324.270
1.644000,3324.270
1.645000,3324.270
1.646000,3324.270
1.647000,3324.270
1.648000,3323.603
1.649000,3323.603
1.650000,3323.603
1.651000,3323.603
1.652000,3323.603
1.653000,3323.317
1.654000,3323.317
1.655000,3323.317
1.656000,3323.317
1.657000,3323.317
1.658000,3320.169
1.659000,3320.169
1.660000,3320.169
1.661000,3320.169
1.662000,3320.169
1.663000,3318.119
1.664000,3318.119
1.665000,3318.119
1.666000,3318.119
1.667000,3327.322
1.668000,3327.322
1.669000,3327.322
1.670000,3327.322
1.671000,3327.322
1.672000,3329.134
1.673000,3329.134
1.674000,3329.134
1.675000,3329.134
1.676000,3329.134
1.677000,3325.796
1.678000,3325.796
1.679000,3325.796
1.680000,3325.796
1.681000,3325.796
1.682000,3324.175
1.683000,3324.175
1.684000,3324.175
1.685000,3324.175
1.686000,3324.175
1.687000,3323.555
1.688000,3323.555
1.689000,3323.555
1.690000,3323.555
1.691000,3323.555
1.692000,3322.792
1.693000,3322.792
1.694000,3322.792
1.695000,3322.792
1.696000,0.000
1.697000,3320.026
1.698000,3320.026
1.699000,3320.026
1.700000,3320.026
1.701000,3320.026
1.702000,3319.454
1.703000,3319.454
1.704000,3319.454
1.705000,3319.454
1.706000,3319.454
1.707000,3321.075
1.708000,3321.075
1.709000,3321.075
1.710000,3321.075
1.711000,3321.075
1.712000,3323.269
1.713000,3323.269
1.714000,3323.269
1.715000,3323.269
1.716000,3323.269
1.717000,3322.887
1.718000,3322.887
1.719000,3322.887
1.720000,3322.887
1.721000,3322.887
1.722000,3321.695
1.723000,3321.695
1.724000,3321.695
1.725000,3321.695
1.726000,3321.695
1.727000,3321.600
1.728000,3321.600
1.729000,3321.600
1.730000,3321.600
1.731000,3316.784
1.732000,3316.784
1.733000,3316.784
1.734000,3316.784
1.735000,3316.784
1.736000,3318.501
1.737000,3318.501
1.738000,3318.501
1.739000,3318.501
1.740000,3318.501
1.741000,3319.597
1.742000,3319.597
1.743000,3319.597
1.744000,3319.597
1.745000,3319.597
1.746000,3320.026
1.747000,3320.026
1.748000,3320.026
1.749000,3320.026
1.750000,3320.026
1.751000,3322.411
1.752000,3322.411
1.753000,3322.411
1.754000,3322.411
1.755000,3322.411
1.756000,3322.077
1.757000,3322.077
1.758000,3322.077
1.759000,3322.077
1.760000,0.000
1.761000,3328.562
1.762000,3328.562
1.763000,3328.562
1.764000,3328.562
1.765000,3328.562
1.766000,3319.073
1.767000,3319.073
1.768000,3319.073
1.769000,3319.073
1.770000,3319.073
1.771000,3319.597
1.772000,3319.597
1.773000,3319.597
1.774000,3319.597
1.775000,3319.597
1.776000,3319.120
1.777000,3319.120
1.778000,3319.120
1.779000,3319.120
1.780000,3319.120
1.781000,3312.492
1.782000,3312.492
1.783000,3312.492
1.784000,3312.492
1.785000,3312.492
1.786000,3321.648
1.787000,3321.648
1.788000,3321.648
1.789000,3321.648
1.790000,3321.648
1.791000,3322.887
1.792000,3322.887
1.793000,3322.887
1.794000,3322.887
1.795000,3322.077
1.796000,3322.077
1.797000,3322.077
1.798000,3322.077
1.799000,3322.077
1.800000,3320.599
1.801000,3320.599
1.802000,3320.599
1.803000,3320.599
1.804000,3320.599
1.805000,3320.456
1.806000,3320.456
1.807000,3320.456
1.808000,3320.456
1.809000,3320.456
1.810000,3319.693
1.811000,3319.693
1.812000,3319.693
1.813000,3319.693
1.814000,3319.693
1.815000,3314.209
1.816000,3314.209
1.817000,3314.209
1.818000,3314.209
1.819000,3314.209
1.820000,3314.400
1.821000,3314.400
1.822000,3314.400
1.823000,3314.400
1.824000,0.000
1.825000,3317.976
1.826000,3317.976
1.827000,3317.976
1.828000,3317.976
1.829000,3317.976
1.830000,3327.322
1.831000,3327.322
1.832000,3327.322
1.833000,3327.322
1.834000,3327.322
1.835000,3327.179
1.836000,3327.179
1.837000,3327.179
1.838000,3327.179
1.839000,3327.179
1.840000,3323.841
1.841000,3323.841
1.842000,3323.841
1.843000,3323.841
1.844000,3323.841
1.845000,3322.124
1.846000,3322.124
1.847000,3322.124
1.848000,3322.124
1.849000,3322.124
1.850000,3317.881
1.851000,3317.881
1.852000,3317.881
1.853000,3317.881
1.854000,3317.881
1.855000,3315.449
1.856000,3315.449
1.857000,3315.449
1.858000,3315.449
1.859000,3321.075
1.860000,3321.075
1.861000,3321.075
1.862000,3321.075
1.863000,3321.075
1.864000,3322.411
1.865000,3322.411
1.866000,3322.411
1.867000,3322.411
1.868000,3322.411
1.869000,3325.701
1.870000,3325.701
1.871000,3325.701
1.872000,3325.701
1.873000,3325.701
1.874000,3328.943
1.875000,3328.943
1.876000,3328.943
1.877000,3328.943
1.878000,3328.943
1.879000,3326.750
1.880000,3326.750
1.881000,3326.750
1.882000,3326.750
1.883000,3326.750
1.884000,3324.556
1.885000,3324.556
1.886000,3324.556
1.887000,3324.556
1.888000,0.000
1.889000,3324.032
1.890000,3324.032
1.891000,3324.032
1.892000,3324.032
1.893000,3324.032
1.894000,3316.545
1.895000,3316.545
1.896000,3316.545
1.897000,3316.545
1.898000,3316.545
1.899000,3318.262
1.900000,3318.262
1.901000,3318.262
1.902000,3318.262
1.903000,3318.262
1.904000,3318.787
1.905000,3318.787
1.906000,3318.787
1.907000,3318.787
1.908000,3318.787
1.909000,3326.702
1.910000,3326.702
1.911000,3326.702
1.912000,3326.702
1.913000,3326.702
1.914000,3326.797
1.915000,3326.797
1.916000,3326.797
1.917000,3326.797
1.918000,3326.797
1.919000,3323.841
1.920000,3323.841
1.921000,3323.841
1.922000,3323.841
1.923000,3317.642
1.924000,3317.642
1.925000,3317.642
1.926000,3317.642
1.927000,3317.642
1.928000,3312.731
1.929000,3312.731
1.930000,3312.731
1.931000,3312.731
1.932000,3312.731
1.933000,3314.352
1.934000,3314.352
1.935000,3314.352
1.936000,3314.352
1.937000,3314.352
1.938000,3319.168
1.939000,3319.168
1.940000,3319.168
1.941000,3319.168
1.942000,3319.168
1.943000,3321.266
1.944000,3321.266
1.945000,3321.266
1.946000,3321.266
1.947000,3321.266
1.948000,3320.742
1.949000,3320.742
1.950000,3320.742
1.951000,3320.742
1.952000,0.000
1.953000,3323.650
1.954000,3323.650
1.955000,3323.650
1.956000,3323.650
1.957000,3323.650
1.958000,3321.791
1.959000,3321.791
1.960000,3321.791
1.961000,3321.791
1.962000,3321.791
1.963000,3320.599
1.964000,3320.599
1.965000,3320.599
1.966000,3320.599
1.967000,3320.599
1.968000,3314.877
1.969000,3314.877
1.970000,3314.877
1.971000,3314.877
1.972000,3314.877
1.973000,3317.356
1.974000,3317.356
1.975000,3317.356
1.976000,3317.356
1.977000,3317.356
1.978000,3320.742
1.979000,3320.742
1.980000,3320.742
1.981000,3320.742
1.982000,3320.742
1.983000,3320.122
1.984000,3320.122
1.985000,3320.122
1.986000,3320.122
1.987000,3325.272
1.988000,3325.272
1.989000,3325.272
1.990000,3325.272
1.991000,3325.272
1.992000,3322.744
1.993000,3322.744
1.994000,3322.744
1.995000,3322.744
1.996000,3322.744
1.997000,3322.983
1.998000,3322.983
1.999000,3322.983
2.000000,3322.983
2.001000,3322.983
2.002000,3323.126
2.003000,3323.126
2.004000,3323.126
2.005000,3323.126
2.006000,3323.126
2.007000,3320.265
2.008000,3320.265
2.009000,3320.265
2.010000,3320.265
2.011000,3320.265
2.012000,3320.265
2.013000,3320.265
2.014000,3320.265
2.015000,3320.265
2.016000,0.000
2.017000,3316.069
2.018000,3316.069
2.019000,3316.069
2.020000,3316.069
2.021000,3316.069
2.022000,3322.315
2.023000,3322.315
2.024000,3322.315
2.025000,3322.315
2.026000,3322.315
2.027000,3321.695
2.028000,3321.695
2.029000,3321.695
2.030000,3321.695
2.031000,3321.695
2.032000,3323.364
2.033000,3323.364
2.034000,3323.364
2.035000,3323.364
2.036000,3323.364
2.037000,3320.789
2.038000,3320.789
2.039000,3320.789
2.040000,3320.789
2.041000,3320.789
2.042000,3319.550
2.043000,3319.550
2.044000,3319.550
2.045000,3319.550
2.046000,3319.550
2.047000,3319.454
2.048000,3319.454
2.049000,3319.454
2.050000,3319.454
2.051000,3319.883
2.052000,3319.883
2.053000,3319.883
2.054000,3319.883
2.055000,3319.883
2.056000,3320.503
2.057000,3320.503
2.058000,3320.503
2.059000,3320.503
2.060000,3320.503
2.061000,3322.792
2.062000,3322.792
2.063000,3322.792
2.064000,3322.792
2.065000,3322.792
2.066000,3323.174
2.067000,3323.174
2.068000,3323.174
2.069000,3323.174
2.070000,3323.174
2.071000,3323.936
2.072000,3323.936
2.073000,3323.936
2.074000,3323.936
2.075000,3323.936
2.076000,3326.464
2.077000,3326.464
2.078000,3326.464
2.079000,3326.464
2.080000,0.000
2.081000,3323.746
2.082000,3323.746
2.083000,3323.746
2.084000,3323.746
2.085000,3323.746
2.086000,3319.883
2.087000,3319.883
2.088000,3319.883
2.089000,3319.883
2.090000,3319.883
2.091000,3314.781
2.092000,3314.781
2.093000,3314.781
2.094000,3314.781
2.095000,3314.781
2.096000,3323.126
2.097000,3323.126
2.098000,3323.126
2.099000,3323.126
2.100000,3323.126
2.101000,3322.935
2.102000,3322.935
2.103000,3322.935
2.104000,3322.935
2.105000,3322.935
2.106000,3322.315
2.107000,3322.315
2.108000,3322.315
2.109000,3322.315
2.110000,3322.315
2.111000,3328.228
2.112000,3328.228
2.113000,3328.228
2.114000,3328.228
2.115000,3319.931
2.116000,3319.931
2.117000,3319.931
2.118000,3319.931
2.119000,3319.931
2.120000,3319.311
2.121000,3319.311
2.122000,3319.311
2.123000,3319.311
2.124000,3319.311
2.125000,3320.503
2.126000,3320.503
2.127000,3320.503
2.128000,3320.503
2.129000,3320.503
2.130000,3314.543
2.131000,3314.543
2.132000,3314.543
2.133000,3314.543
2.134000,3314.543
2.135000,3314.543
2.136000,3314.543
2.137000,3314.543
2.138000,3314.543
2.139000,3314.543
2.140000,3318.024
2.141000,3318.024
2.142000,3318.024
2.143000,3318.024
2.144000,0.000
2.145000,3319.454
2.146000,3319.454
2.147000,3319.454
2.148000,3319.454
2.149000,3319.454
2.150000,3324.556
2.151000,3324.556
2.152000,3324.556
2.153000,3324.556
2.154000,3324.556
2.155000,3320.074
2.156000,3320.074
2.157000,3320.074
2.158000,3320.074
2.159000,3320.074
2.160000,3316.927
2.161000,3316.927
2.162000,3316.927
2.163000,3316.927
2.164000,3316.927
2.165000,3316.021
2.166000,3316.021
2.167000,3316.021
2.168000,3316.021
2.169000,3316.021
2.170000,3317.070
2.171000,3317.070
2.172000,3317.070
2.173000,3317.070
2.174000,3317.070
2.175000,3319.645
2.176000,3319.645
2.177000,3319.645
2.178000,3319.645
2.179000,3326.035
2.180000,3326.035
2.181000,3326.035
2.182000,3326.035
2.183000,3326.035
2.184000,3329.039
2.185000,3329.039
2.186000,3329.039
2.187000,3329.039
2.188000,3329.039
2.189000,3326.368
2.190000,3326.368
2.191000,3326.368
2.192000,3326.368
2.193000,3326.368
2.194000,3324.652
2.195000,3324.652
2.196000,3324.652
2.197000,3324.652
2.198000,3324.652
2.199000,3322.887
2.200000,3322.887
2.201000,3322.887
2.202000,3322.887
2.203000,3322.887
2.204000,3322.077
2.205000,3322.077
2.206000,3322.077
2.207000,3322.077
2.208000,0.000
2.209000,3319.883
2.210000,3319.883
2.211000,3319.883
2.212000,3319.883
2.213000,3319.883
2.214000,3327.751
2.215000,3327.751
2.216000,3327.751
2.217000,3327.751
2.218000,3327.751
2.219000,3325.272
2.220000,3325.272
2.221000,3325.272
2.222000,3325.272
2.223000,3325.272
2.224000,3323.221
2.225000,3323.221
2.226000,3323.221
2.227000,3323.221
2.228000,3323.221
2.229000,3323.269
2.230000,3323.269
2.231000,3323.269
2.232000,3323.269
2.233000,3323.269
2.234000,3323.746
2.235000,3323.746
2.236000,3323.746
2.237000,3323.746
2.238000,3323.746
2.239000,3321.600
2.240000,3321.600
2.241000,3321.600
2.242000,3321.600
2.243000,3318.596
2.244000,3318.596
2.245000,3318.596
2.246000,3318.596
2.247000,3318.596
2.248000,3317.356
2.249000,3317.356
2.250000,3317.356
2.251000,3317.356
2.252000,3317.356
2.253000,3320.313
2.254000,3320.313
2.255000,3320.313
2.256000,3320.313
2.257000,3320.313
2.258000,3322.887
2.259000,3322.887
2.260000,3322.887
2.261000,3322.887
2.262000,3322.887
2.263000,3322.887
2.264000,3322.887
2.265000,3322.887
2.266000,3322.887
2.267000,3322.887
2.268000,3327.656
2.269000,3327.656
2.270000,3327.656
2.271000,3327.656
2.272000,0.000
2.273000,3325.319
2.274000,3325.319
2.275000,3325.319
2.276000,3325.319
2.277000,0.000
2.278000,3320.026
2.279000,3320.026
2.280000,3320.026
2.281000,3320.026
2.282000,3320.026
2.283000,3321.791
2.284000,3321.791
2.285000,3321.791
2.286000,3321.791
2.287000,3321.791
2.288000,3321.123
2.289000,3321.123
2.290000,3321.123
2.291000,3321.123
2.292000,3321.123
2.293000,3322.840
2.294000,3322.840
2.295000,3322.840
2.296000,3322.840
2.297000,3322.840
2.298000,3325.510
2.299000,3325.510
2.300000,3325.510
2.301000,3325.510
2.302000,3325.510
2.303000,3327.751
2.304000,3327.751
2.305000,3327.751
2.306000,3327.751
2.307000,0.000
2.308000,0.000
2.309000,0.000
2.310000,0.000
2.311000,0.000
2.312000,3316.689
2.313000,3316.689
2.314000,3316.689
2.315000,3316.689
2.316000,3316.689
2.317000,3315.353
2.318000,3315.353
2.319000,3315.353
2.320000,3315.353
2.321000,3315.353
2.322000,3317.070
2.323000,3317.070
2.324000,3317.070
2.325000,3317.070
2.326000,3317.070
2.327000,3319.502
2.328000,3319.502
2.329000,3319.502
2.330000,3319.502
2.331000,3319.502
2.332000,3320.169
2.333000,3320.169
2.334000,3320.169
2.335000,3320.169
2.336000,12.922
2.337000,3320.742
2.338000,3320.742
2.339000,3320.742
2.340000,3320.742
2.341000,3320.742
2.342000,3319.407
2.343000,3319.407
2.344000,3319.407
2.345000,3319.407
2.346000,3319.407
2.347000,3318.262
2.348000,3318.262
2.349000,3318.262
2.350000,3318.262
2.351000,3318.262
2.352000,3315.735
2.353000,3315.735
2.354000,3315.735
2.355000,3315.735
2.356000,3315.735
2.357000,3315.830
2.358000,3315.830
2.359000,3315.830
2.360000,3315.830
2.361000,3315.830
2.362000,3317.547
2.363000,3317.547
2.364000,3317.547
2.365000,3317.547
2.366000,3317.547
2.367000,3318.214
2.368000,3318.214
2.369000,3318.214
2.370000,3318.214
2.371000,3328.133
2.372000,3328.133
2.373000,3328.133
2.374000,3328.133
2.375000,3328.133
2.376000,3327.370
2.377000,3327.370
2.378000,3327.370
2.379000,3327.370
2.380000,3327.370
2.381000,3324.938
2.382000,3324.938
2.383000,3324.938
2.384000,3324.938
2.385000,3324.938
2.386000,3322.411
2.387000,3322.411
2.388000,3322.411
2.389000,3322.411
2.390000,3322.411
2.391000,3322.268
2.392000,3322.268
2.393000,3322.268
2.394000,3322.268
2.395000,3322.268
2.396000,3321.886
2.397000,3321.886
2.398000,3321.886
2.399000,3321.886
2.400000,12.970
2.401000,3320.122
2.402000,3320.122
2.403000,3320.122
2.404000,3320.122
2.405000,3320.122
2.406000,3327.084
2.407000,3327.084
2.408000,3327.084
2.409000,3327.084
2.410000,3327.084
2.411000,3327.179
2.412000,3327.179
2.413000,3327.179
2.414000,3327.179
2.415000,3327.179
2.416000,3325.605
2.417000,3325.605
2.418000,3325.605
2.419000,3325.605
2.420000,3325.605
2.421000,3324.318
2.422000,3324.318
2.423000,3324.318
2.424000,3324.318
2.425000,3324.318
2.426000,3324.461
2.427000,3324.461
2.428000,3324.461
2.429000,3324.461
2.430000,3324.461
2.431000,3322.554
2.432000,3322.554
2.433000,3322.554
2.434000,3322.554
2.435000,3316.736
2.436000,3316.736
2.437000,3316.736
2.438000,3316.736
2.439000,3316.736
2.440000,3319.168
2.441000,3319.168
2.442000,3319.168
2.443000,3319.168
2.444000,3319.168
2.445000,3318.453
2.446000,3318.453
2.447000,3318.453
2.448000,3318.453
2.449000,3318.453
2.450000,3318.453
2.451000,3318.453
2.452000,3318.453
2.453000,3318.453
2.454000,3318.453
2.455000,3322.649
2.456000,3322.649
2.457000,3322.649
2.458000,3322.649
2.459000,3322.649
2.460000,3323.126
2.461000,3323.126
2.462000,3323.126
2.463000,3323.126
2.464000,12.970
2.465000,3316.355
2.466000,3316.355
2.467000,3316.355
2.468000,3316.355
2.469000,3316.355
2.470000,3318.691
2.471000,3318.691
2.472000,3318.691
2.473000,3318.691
2.474000,3318.691
2.475000,3318.071
2.476000,3318.071
2.477000,3318.071
2.478000,3318.071
2.479000,3318.071
2.480000,3319.073
2.481000,3319.073
2.482000,3319.073
2.483000,3319.073
2.484000,3319.073
2.485000,3321.695
2.486000,3321.695
2.487000,3321.695
2.488000,3321.695
2.489000,3321.695
2.490000,3323.078
2.491000,3323.078
2.492000,3323.078
2.493000,3323.078
2.494000,3323.078
2.495000,3325.033
2.496000,3325.033
2.497000,3325.033
2.498000,3325.033
2.499000,3323.507
2.500000,3323.507
2.501000,3323.507
2.502000,3323.507
2.503000,3323.507
2.504000,3320.789
2.505000,3320.789
2.506000,3320.789
2.507000,3320.789
2.508000,3320.789
2.509000,3320.932
2.510000,3320.932
2.511000,3320.932
2.512000,3320.932
2.513000,3320.932
2.514000,3316.593
2.515000,3316.593
2.516000,3316.593
2.517000,3316.593
2.518000,3316.593
2.519000,3314.352
2.520000,3314.352
2.521000,3314.352
2.522000,3314.352
2.523000,3314.352
2.524000,3321.457
2.525000,3321.457
2.526000,3321.457
2.527000,3321.457
2.528000,0.000
2.529000,3322.124
2.530000,3322.124
2.531000,3322.124
2.532000,3322.124
2.533000,3322.124
2.534000,3322.315
2.535000,3322.315
2.536000,3322.315
2.537000,3322.315
2.538000,3322.315
2.539000,3320.599
2.540000,3320.599
2.541000,3320.599
2.542000,3320.599
2.543000,3320.599
2.544000,3319.311
2.545000,3319.311
2.546000,3319.311
2.547000,3319.311
2.548000,3319.311
2.549000,3319.931
2.550000,3319.931
2.551000,3319.931
2.552000,3319.931
2.553000,3319.931
2.554000,3314.447
2.555000,3314.447
2.556000,3314.447
2.557000,3314.447
2.558000,3314.447
2.559000,3314.590
2.560000,3314.590
2.561000,3314.590
2.562000,3314.590
2.563000,3321.886
2.564000,3321.886
2.565000,3321.886
2.566000,3321.886
2.567000,3321.886
2.568000,3322.744
2.569000,3322.744
2.570000,3322.744
2.571000,3322.744
2.572000,3322.744
2.573000,3327.370
2.574000,3327.370
2.575000,3327.370
2.576000,3327.370
2.577000,3327.370
2.578000,3326.368
2.579000,3326.368
2.580000,3326.368
2.581000,3326.368
2.582000,3326.368
2.583000,3323.507
2.584000,3323.507
2.585000,3323.507
2.586000,3323.507
2.587000,3323.507
2.588000,3320.265
2.589000,3320.265
2.590000,3320.265
2.591000,3320.265
2.592000,0.000
2.593000,3314.447
2.594000,3314.447
2.595000,3314.447
2.596000,3314.447
2.597000,3314.447
2.598000,3321.838
2.599000,3321.838
2.600000,3321.838
2.601000,3321.838
2.602000,3321.838
2.603000,3321.218
2.604000,3321.218
2.605000,3321.218
2.606000,3321.218
2.607000,3321.218
2.608000,3326.702
2.609000,3326.702
2.610000,3326.702
2.611000,3326.702
2.612000,3326.702
2.613000,3328.753
2.614000,3328.753
2.615000,3328.753
2.616000,3328.753
2.617000,3328.753
2.618000,3326.511
2.619000,3326.511
2.620000,3326.511
2.621000,3326.511
2.622000,3326.511
2.623000,3324.270
2.624000,3324.270
2.625000,3324.270
2.626000,3324.270
2.627000,3314.161
2.628000,3314.161
2.629000,3314.161
2.630000,3314.161
2.631000,3314.161
2.632000,3317.165
2.633000,3317.165
2.634000,3317.165
2.635000,3317.165
2.636000,3317.165
2.637000,3320.122
2.638000,3320.122
2.639000,3320.122
2.640000,3320.122
2.641000,3320.122
2.642000,3318.787
2.643000,3318.787
2.644000,3318.787
2.645000,3318.787
2.646000,3318.787
2.647000,3323.889
2.648000,3323.889
2.649000,3323.889
2.650000,3323.889
2.651000,3323.889
2.652000,3328.705
2.653000,3328.705
2.654000,3328.705
2.655000,3328.705
2.656000,0.000
2.657000,3325.891
2.658000,3325.891
2.659000,3325.891
2.660000,3325.891
2.661000,3325.891
2.662000,3314.400
2.663000,3314.400
2.664000,3314.400
2.665000,3314.400
2.666000,3314.400
2.667000,3315.639
2.668000,3315.639
2.669000,3315.639
2.670000,3315.639
2.671000,3315.639
2.672000,3318.453
2.673000,3318.453
2.674000,3318.453
2.675000,3318.453
2.676000,3318.453
2.677000,3317.785
2.678000,3317.785
2.679000,3317.785
2.680000,3317.785
2.681000,3317.785
2.682000,3319.979
2.683000,3319.979
2.684000,3319.979
2.685000,3319.979
2.686000,3319.979
2.687000,3324.461
2.688000,3324.461
2.689000,3324.461
2.690000,3324.461
2.691000,3321.695
2.692000,3321.695
2.693000,3321.695
2.694000,3321.695
2.695000,3321.695
2.696000,3321.123
2.697000,3321.123
2.698000,3321.123
2.699000,3321.123
2.700000,3321.123
2.701000,3321.743
2.702000,3321.743
2.703000,3321.743
2.704000,3321.743
2.705000,3321.743
2.706000,3320.694
2.707000,3320.694
2.708000,3320.694
2.709000,3320.694
2.710000,3320.694
2.711000,3317.022
2.712000,3317.022
2.713000,3317.022
2.714000,3317.022
2.715000,3317.022
2.716000,3318.691
2.717000,3318.691
2.718000,3318.691
2.719000,3318.691
2.720000,0.000
2.721000,3319.597
2.722000,3319.597
2.723000,3319.597
2.724000,3319.597
2.725000,3319.597
2.726000,3325.176
2.727000,3325.176
2.728000,3325.176
2.729000,3325.176
2.730000,3325.176
2.731000,3323.555
2.732000,3323.555
2.733000,3323.555
2.734000,3323.555
2.735000,3323.555
2.736000,3322.983
2.737000,3322.983
2.738000,3322.983
2.739000,3322.983
2.740000,3322.983
2.741000,3320.503
2.742000,3320.503
2.743000,3320.503
2.744000,3320.503
2.745000,3320.503
2.746000,3318.262
2.747000,3318.262
2.748000,3318.262
2.749000,3318.262
2.750000,3318.262
2.751000,3317.499
2.752000,3317.499
2.753000,3317.499
2.754000,3317.499
2.755000,3320.265
2.756000,3320.265
2.757000,3320.265
2.758000,3320.265
2.759000,3320.265
2.760000,3320.599
2.761000,3320.599
2.762000,3320.599
2.763000,3320.599
2.764000,3320.599
2.765000,3321.838
2.766000,3321.838
2.767000,3321.838
2.768000,3321.838
2.769000,3321.838
2.770000,3321.218
2.771000,3321.218
2.772000,3321.218
2.773000,3321.218
2.774000,3321.218
2.775000,3322.029
2.776000,3322.029
2.777000,3322.029
2.778000,3322.029
2.779000,3322.029
2.780000,3323.174
2.781000,3323.174
2.782000,3323.174
2.783000,3323.174
2.784000,0.000
2.785000,3320.360
2.786000,3320.360
2.787000,3320.360
2.788000,3320.360
2.789000,3320.360
2.790000,3318.930
2.791000,3318.930
2.792000,3318.930
2.793000,3318.930
2.794000,3318.930
2.795000,3319.263
2.796000,3319.263
2.797000,3319.263
2.798000,3319.263
2.799000,3319.263
2.800000,3321.791
2.801000,3321.791
2.802000,3321.791
2.803000,3321.791
2.804000,3321.791
2.805000,3322.315
2.806000,3322.315
2.807000,3322.315
2.808000,3322.315
2.809000,3322.315
2.810000,3325.129
2.811000,3325.129
2.812000,3325.129
2.813000,3325.129
2.814000,3325.129
2.815000,3328.037
2.816000,3328.037
2.817000,3328.037
2.818000,3328.037
2.819000,3321.314
2.820000,3321.314
2.821000,3321.314
2.822000,3321.314
2.823000,3321.314
2.824000,3316.784
2.825000,3316.784
2.826000,3316.784
2.827000,3316.784
2.828000,3316.784
2.829000,3315.210
2.830000,3315.210
2.831000,3315.210
2.832000,3315.210
2.833000,3315.210
2.834000,3322.554
2.835000,3322.554
2.836000,3322.554
2.837000,3322.554
2.838000,3322.554
2.839000,3322.983
2.840000,3322.983
2.841000,3322.983
2.842000,3322.983
2.843000,3322.983
2.844000,3322.935
2.845000,3322.935
2.846000,3322.935
2.847000,3322.935
2.848000,0.000
2.849000,3324.461
2.850000,3324.461
2.851000,3324.461
2.852000,3324.461
2.853000,3324.461
2.854000,3320.169
2.855000,3320.169
2.856000,3320.169
2.857000,3320.169
2.858000,3320.169
2.859000,3317.738
2.860000,3317.738
2.861000,3317.738
2.862000,3317.738
2.863000,3317.738
2.864000,3315.735
2.865000,3315.735
2.866000,3315.735
2.867000,3315.735
2.868000,3315.735
2.869000,3316.116
2.870000,3316.116
2.871000,3316.116
2.872000,3316.116
2.873000,3316.116
2.874000,3318.691
2.875000,3318.691
2.876000,3318.691
2.877000,3318.691
2.878000,3318.691
2.879000,3319.931
2.880000,3319.931
2.881000,3319.931
2.882000,3319.931
2.883000,3327.656
2.884000,3327.656
2.885000,3327.656
2.886000,3327.656
2.887000,3327.656
2.888000,3325.987
2.889000,3325.987
2.890000,3325.987
2.891000,3325.987
2.892000,3325.987
2.893000,3324.509
2.894000,3324.509
2.895000,3324.509
2.896000,3324.509
2.897000,3324.509
2.898000,3321.695
2.899000,3321.695
2.900000,3321.695
2.901000,3321.695
2.902000,3321.695
2.903000,3316.784
2.904000,3316.784
2.905000,3316.784
2.906000,3316.784
2.907000,3316.784
2.908000,3316.402
2.909000,3316.402
2.910000,3316.402
2.911000,3316.402
2.912000,0.000
2.913000,3319.883
2.914000,3319.883
2.915000,3319.883
2.916000,3319.883
2.917000,3319.883
2.918000,3325.748
2.919000,3325.748
2.920000,3325.748
2.921000,3325.748
2.922000,3325.748
2.923000,3326.178
2.924000,3326.178
2.925000,3326.178
2.926000,3326.178
2.927000,3326.178
2.928000,3326.082
2.929000,3326.082
2.930000,3326.082
2.931000,3326.082
2.932000,3326.082
2.933000,3324.747
2.934000,3324.747
2.935000,3324.747
2.936000,3324.747
2.937000,3324.747
2.938000,3323.555
2.939000,3323.555
2.940000,3323.555
2.941000,3323.555
2.942000,3323.555
2.943000,3322.029
2.944000,3322.029
2.945000,3322.029
2.946000,3322.029
2.947000,3319.311
2.948000,3319.311
2.949000,3319.311
2.950000,3319.311
2.951000,3319.311
2.952000,3319.311
2.953000,3319.311
2.954000,3319.311
2.955000,3319.311
2.956000,3319.311
2.957000,3324.795
2.958000,3324.795
2.959000,3324.795
2.960000,3324.795
2.961000,3324.795
2.962000,3327.751
2.963000,3327.751
2.964000,3327.751
2.965000,3327.751
2.966000,3327.751
2.967000,3324.652
2.968000,3324.652
2.969000,3324.652
2.970000,3324.652
2.971000,3324.652
2.972000,3322.363
2.973000,3322.363
2.974000,3322.363
2.975000,3322.363
2.976000,0.000
2.977000,3322.887
2.978000,3322.887
2.979000,3322.887
2.980000,3322.887
2.981000,3322.887
2.982000,3320.742
2.983000,3320.742
2.984000,3320.742
2.985000,3320.742
2.986000,3320.742
2.987000,3320.885
2.988000,3320.885
2.989000,3320.885
2.990000,3320.885
2.991000,3320.885
2.992000,3320.122
2.993000,3320.122
2.994000,3320.122
2.995000,3320.122
2.996000,3320.122
2.997000,3321.791
2.998000,3321.791
2.999000,3321.791
3.000000,3321.791
3.001000,3321.791
3.002000,3323.603
3.003000,3323.603
3.004000,3323.603
3.005000,3323.603
3.006000,3323.603
3.007000,3326.321
3.008000,3326.321
3.009000,3326.321
3.010000,3326.321
3.011000,3322.363
3.012000,3322.363
3.013000,3322.363
3.014000,3322.363
3.015000,3322.363
3.016000,3320.360
3.017000,3320.360
3.018000,3320.360
3.019000,3320.360
3.020000,3320.360
3.021000,3318.691
3.022000,3318.691
3.023000,3318.691
3.024000,3318.691
3.025000,3318.691
3.026000,3318.262
3.027000,3318.262
3.028000,3318.262
3.029000,3318.262
3.030000,3318.262
3.031000,3318.405
3.032000,3318.405
3.033000,3318.405
3.034000,3318.405
3.035000,3318.405
3.036000,3318.357
3.037000,3318.357
3.038000,3318.357
3.039000,3318.357
3.040000,0.000
3.041000,3320.456
3.042000,3320.456
3.043000,3320.456
3.044000,3320.456
3.045000,3320.456
3.046000,3322.268
3.047000,3322.268
3.048000,3322.268
3.049000,3322.268
3.050000,3322.268
3.051000,3320.646
3.052000,3320.646
3.053000,3320.646
3.054000,3320.646
3.055000,3320.646
3.056000,3320.217
3.057000,3320.217
3.058000,3320.217
3.059000,3320.217
3.060000,3320.217
3.061000,3320.217
3.062000,3320.217
3.063000,3320.217
3.064000,3320.217
3.065000,3320.217
3.066000,3315.163
3.067000,3315.163
3.068000,3315.163
3.069000,3315.163
3.070000,3315.163
3.071000,3316.450
3.072000,3316.450
3.073000,3316.450
3.074000,3316.450
3.075000,3490.734
3.076000,3490.734
3.077000,3490.734
3.078000,3490.734
3.079000,3490.734
3.080000,3491.306
3.081000,3491.306
3.082000,3491.306
3.083000,3491.306
3.084000,3491.306
3.085000,3511.715
3.086000,3511.715
3.087000,3511.715
3.088000,3511.715
3.089000,3511.715
3.090000,3511.190
3.091000,3511.190
3.092000,3511.190
3.093000,3511.190
3.094000,3511.190
3.095000,3509.521
3.096000,3509.521
3.097000,3509.521
3.098000,3509.521
3.099000,3509.521
3.100000,3524.494
3.101000,3524.494
3.102000,3524.494
3.103000,3524.494
3.104000,0.000
3.105000,3525.877
3.106000,3525.877
3.107000,3525.877
3.108000,3525.877
3.109000,3525.877
3.110000,3535.509
3.111000,3535.509
3.112000,3535.509
3.113000,3535.509
3.114000,3535.509
3.115000,3534.079
3.116000,3534.079
3.117000,3534.079
3.118000,3534.079
3.119000,3534.079
3.120000,3524.208
3.121000,3524.208
3.122000,3524.208
3.123000,3524.208
3.124000,3524.208
3.125000,3517.199
3.126000,3517.199
3.127000,3517.199
3.128000,3517.199
3.129000,3517.199
3.130000,3513.813
3.131000,3513.813
3.132000,3513.813
3.133000,3513.813
3.134000,3513.813
3.135000,3512.287
3.136000,3512.287
3.137000,3512.287
3.138000,3512.287
3.139000,3315.735
3.140000,3315.735
3.141000,3315.735
3.142000,3315.735
3.143000,3315.735
3.144000,3315.735
3.145000,3315.735
3.146000,3315.735
3.147000,3315.735
3.148000,3315.735
3.149000,3323.078
3.150000,3323.078
3.151000,3323.078
3.152000,3323.078
3.153000,3323.078
3.154000,3324.366
3.155000,3324.366
3.156000,3324.366
3.157000,3324.366
3.158000,3324.366
3.159000,3327.608
3.160000,3327.608
3.161000,3327.608
3.162000,3327.608
3.163000,3327.608
3.164000,3327.370
3.165000,3327.370
3.166000,3327.370
3.167000,3327.370
3.168000,0.000
3.169000,3324.652
3.170000,3324.652
3.171000,3324.652
3.172000,3324.652
3.173000,3324.652
3.174000,0.000
3.175000,0.000
3.176000,0.000
3.177000,0.000
3.178000,0.000
3.179000,3315.830
3.180000,3315.830
3.181000,3315.830
3.182000,3315.830
3.183000,3315.830
3.184000,3318.644
3.185000,3318.644
3.186000,3318.644
3.187000,3318.644
3.188000,3318.644
3.189000,3320.122
3.190000,3320.122
3.191000,3320.122
3.192000,3320.122
3.193000,3320.122
3.194000,3322.172
3.195000,3322.172
3.196000,3322.172
3.197000,3322.172
3.198000,3322.172
3.199000,3321.838
3.200000,3321.838
3.201000,3321.838
3.202000,3321.838
3.203000,3324.461
3.204000,3324.461
3.205000,3324.461
3.206000,3324.461
3.207000,3324.461
3.208000,3318.834
3.209000,3318.834
3.210000,3318.834
3.211000,3318.834
3.212000,3318.834
3.213000,3314.781
3.214000,3314.781
3.215000,3314.781
3.216000,3314.781
3.217000,3314.781
3.218000,3315.830
3.219000,3315.830
3.220000,3315.830
3.221000,3315.830
3.222000,3315.830
3.223000,3317.022
3.224000,3317.022
3.225000,3317.022
3.226000,3317.022
3.227000,3317.022
3.228000,3318.453
3.229000,3318.453
3.230000,3318.453
3.231000,3318.453
3.232000,0.000
3.233000,3318.787
3.234000,3318.787
3.235000,3318.787
3.236000,3318.787
3.237000,3318.787
3.238000,3279.161
3.239000,3279.161
3.240000,3279.161
3.241000,3279.161
3.242000,3279.161
3.243000,3264.523
3.244000,3264.523
3.245000,3264.523
3.246000,3264.523
3.247000,3264.523
3.248000,3253.794
3.249000,3253.794
3.250000,3253.794
3.251000,3253.794
3.252000,3253.794
3.253000,3238.916
3.254000,3238.916
3.255000,3238.916
3.256000,3238.916
3.257000,3238.916
3.258000,3227.615
3.259000,3227.615
3.260000,3227.615
3.261000,3227.615
3.262000,3227.615
3.263000,3228.331
3.264000,3228.331
3.265000,3228.331
3.266000,3228.331
3.267000,4496.288
3.268000,4496.288
3.269000,4496.288
3.270000,4496.288
3.271000,4496.288
3.272000,4552.889
3.273000,4552.889
3.274000,4552.889
3.275000,4552.889
3.276000,4552.889
3.277000,4619.646
3.278000,4619.646
3.279000,4619.646
3.280000,4619.646
3.281000,4619.646
3.282000,4671.431
3.283000,4671.431
3.284000,4671.431
3.285000,4671.431
3.286000,4671.431
3.287000,4762.745
3.288000,4762.745
3.289000,4762.745
3.290000,4762.745
3.291000,4762.745
3.292000,4814.386
3.293000,4814.386
3.294000,4814.386
3.295000,4814.386
3.296000,0.000
3.297000,4652.452
3.298000,4652.452
3.299000,4652.452
3.300000,4652.452
3.301000,4652.452
3.302000,3137.541
3.303000,3137.541
3.304000,3137.541
3.305000,3137.541
3.306000,3137.541
3.307000,3139.639
3.308000,3139.639
3.309000,3139.639
3.310000,3139.639
3.311000,3139.639
3.312000,3158.092
3.313000,3158.092
3.314000,3158.092
3.315000,3158.092
3.316000,3158.092
3.317000,3168.869
3.318000,3168.869
3.319000,3168.869
3.320000,3168.869
3.321000,3168.869
3.322000,3179.359
3.323000,3179.359
3.324000,3179.359
3.325000,3179.359
3.326000,3179.359
3.327000,3227.949
3.328000,3227.949
3.329000,3227.949
3.330000,3227.949
3.331000,3318.119
3.332000,3318.119
3.333000,3318.119
3.334000,3318.119
3.335000,3318.119
3.336000,3321.600
3.337000,3321.600
3.338000,3321.600
3.339000,3321.600
3.340000,3321.600
3.341000,3320.885
3.342000,3320.885
3.343000,3320.885
3.344000,3320.885
3.345000,3320.885
3.346000,3321.362
3.347000,3321.362
3.348000,3321.362
3.349000,3321.362
3.350000,3321.362
3.351000,3326.607
3.352000,3326.607
3.353000,3326.607
3.354000,3326.607
3.355000,3326.607
3.356000,3326.941
3.357000,3326.941
3.358000,3326.941
3.359000,3326.941
3.360000,0.000
3.361000,3323.603
3.362000,3323.603
3.363000,3323.603
3.364000,3323.603
3.365000,3323.603
3.366000,3311.872
3.367000,3311.872
3.368000,3311.872
3.369000,3311.872
3.370000,3311.872
3.371000,3313.684
3.372000,3313.684
3.373000,3313.684
3.374000,3313.684
3.375000,3313.684
3.376000,3317.928
3.377000,3317.928
3.378000,3317.928
3.379000,3317.928
3.380000,3317.928
3.381000,3320.122
3.382000,3320.122
3.383000,3320.122
3.384000,3320.122
3.385000,3320.122
3.386000,3319.311
3.387000,3319.311
3.388000,3319.311
3.389000,3319.311
3.390000,3319.311
3.391000,3328.705
3.392000,3328.705
3.393000,3328.705
3.394000,3328.705
3.395000,3319.359
3.396000,3319.359
3.397000,3319.359
3.398000,3319.359
3.399000,3319.359
3.400000,3319.263
3.401000,3319.263
3.402000,3319.263
3.403000,3319.263
3.404000,3319.263
3.405000,3316.927
3.406000,3316.927
3.407000,3316.927
3.408000,3316.927
3.409000,3316.927
3.410000,3314.114
3.411000,3314.114
3.412000,3314.114
3.413000,3314.114
3.414000,3314.114
3.415000,3315.496
3.416000,3315.496
3.417000,3315.496
3.418000,3315.496
3.419000,3315.496
3.420000,3317.118
3.421000,3317.118
3.422000,3317.118
3.423000,3317.118
3.424000,0.000
3.425000,3320.789
3.426000,3320.789
3.427000,3320.789
3.428000,3320.789
3.429000,3320.789
3.430000,3326.082
3.431000,3326.082
3.432000,3326.082
3.433000,3326.082
3.434000,3326.082
3.435000,3322.411
3.436000,3322.411
3.437000,3322.411
3.438000,3322.411
3.439000,3322.411
3.440000,3322.935
3.441000,3322.935
3.442000,3322.935
3.443000,3322.935
3.444000,3322.935
3.445000,3322.411
3.446000,3322.411
3.447000,3322.411
3.448000,3322.411
3.449000,3322.411
3.450000,3321.600
3.451000,3321.600
3.452000,3321.600
3.453000,3321.600
3.454000,3321.600
3.455000,3319.693
3.456000,3319.693
3.457000,3319.693
3.458000,3319.693
3.459000,0.000
3.460000,0.000
3.461000,0.000
3.462000,0.000
3.463000,0.000
3.464000,0.000
3.465000,0.000
3.466000,0.000
3.467000,0.000
3.468000,0.000
3.469000,3326.130
3.470000,3326.130
3.471000,3326.130
3.472000,3326.130
3.473000,3326.130
3.474000,3321.648
3.475000,3321.648
3.476000,3321.648
3.477000,3321.648
3.478000,3321.648
3.479000,3322.268
3.480000,3322.268
3.481000,3322.268
3.482000,3322.268
3.483000,3322.268
3.484000,3322.792
3.485000,3322.792
3.486000,3322.792
3.487000,3322.792
3.488000,0.000
3.489000,3320.026
3.490000,3320.026
3.491000,3320.026
3.492000,3320.026
3.493000,3320.026
3.494000,3417.826
3.495000,3417.826
3.496000,3417.826
3.497000,3417.826
3.498000,3417.826
3.499000,3420.687
3.500000,3420.687
3.501000,3420.687
3.502000,3420.687
3.503000,3420.687
3.504000,3447.914
3.505000,3447.914
3.506000,3447.914
3.507000,3447.914
3.508000,3447.914
3.509000,3465.271
3.510000,3465.271
3.511000,3465.271
3.512000,3465.271
3.513000,3465.271
3.514000,3464.842
3.515000,3464.842
3.516000,3464.842
3.517000,3464.842
3.518000,3464.842
3.519000,3464.842
3.520000,3464.842
3.521000,3464.842
3.522000,3465.796
3.523000,3678.894
3.524000,3678.894
3.525000,3678.894
3.526000,3678.894
3.527000,3678.894
3.528000,3695.202
3.529000,3695.202
3.530000,3695.202
3.531000,3695.202
3.532000,3695.202
3.533000,3696.585
3.534000,3696.585
3.535000,3696.585
3.536000,3696.585
3.537000,3696.585
3.538000,3698.540
3.539000,3698.540
3.540000,3698.540
3.541000,3698.540
3.542000,3698.540
3.543000,3699.970
3.544000,3699.970
3.545000,3699.970
3.546000,3699.970
3.547000,3699.970
3.548000,3699.970
3.549000,3699.970
3.550000,3699.970
3.551000,3699.970
3.552000,0.000
3.553000,3705.454
3.554000,3705.454
3.555000,3705.454
3.556000,3705.454
3.557000,3705.454
3.558000,3789.282
3.559000,3789.282
3.560000,3789.282
3.561000,3789.282
3.562000,3789.282
3.563000,3791.809
3.564000,3791.809
3.565000,3791.809
3.566000,3791.809
3.567000,3791.809
3.568000,3788.757
3.569000,3788.757
3.570000,3788.757
3.571000,3788.757
3.572000,3788.757
3.573000,3800.154
3.574000,3800.154
3.575000,3800.154
3.576000,3800.154
3.577000,3800.154
3.578000,3816.509
3.579000,3816.509
3.580000,3816.509
3.581000,3816.509
3.582000,3816.509
3.583000,3817.368
3.584000,3817.368
3.585000,3817.368
3.586000,3817.368
3.587000,3748.846
3.588000,3748.846
3.589000,3748.846
3.590000,3748.846
3.591000,3748.846
3.592000,3746.033
3.593000,3746.033
3.594000,3746.033
3.595000,3746.033
3.596000,3746.033
3.597000,3729.200
3.598000,3729.200
3.599000,3729.200
3.600000,3729.200
3.601000,3729.200
3.602000,3720.713
3.603000,3720.713
3.604000,3720.713
3.605000,3720.713
3.606000,3720.713
3.607000,3717.852
3.608000,3717.852
3.609000,3717.852
3.610000,3717.852
3.611000,3717.852
3.612000,3714.228
3.613000,3714.228
3.614000,3714.228
3.615000,3714.228
3.616000,0.000
3.617000,3718.376
3.618000,3718.376
3.619000,3718.376
3.620000,3718.376
3.621000,3718.376
3.622000,0.000
3.623000,0.000
3.624000,0.000
3.625000,0.000
3.626000,0.000
3.627000,3525.066
3.628000,3525.066
3.629000,3525.066
3.630000,3525.066
3.631000,3525.066
3.632000,3514.338
3.633000,3514.338
3.634000,3514.338
3.635000,3514.338
3.636000,3514.338
3.637000,3498.268
3.638000,3498.268
3.639000,3498.268
3.640000,3498.268
3.641000,3498.268
3.642000,3460.121
3.643000,3460.121
3.644000,3460.121
3.645000,3460.121
3.646000,3460.121
3.647000,3428.125
3.648000,3428.125
3.649000,3428.125
3.650000,3428.125
3.651000,3319.693
3.652000,3319.693
3.653000,3319.693
3.654000,3319.693
3.655000,3319.693
3.656000,3322.077
3.657000,3322.077
3.658000,3322.077
3.659000,3322.077
3.660000,3322.077
3.661000,3323.269
3.662000,3323.269
3.663000,3323.269
3.664000,3323.269
3.665000,3323.269
3.666000,3323.269
3.667000,3323.269
3.668000,3323.269
3.669000,3323.269
3.670000,3323.269
3.671000,3325.891
3.672000,3325.891
3.673000,3325.891
3.674000,3325.891
3.675000,3325.891
3.676000,3324.223
3.677000,3324.223
3.678000,3324.223
3.679000,3324.223
3.680000,0.000
3.681000,3322.792
3.682000,3322.792
3.683000,3322.792
3.684000,3322.792
3.685000,3322.792
3.686000,0.000
3.687000,0.000
3.688000,0.000
3.689000,0.000
3.690000,0.000
3.691000,3318.691
3.692000,3318.691
3.693000,3318.691
3.694000,3318.691
3.695000,3318.691
3.696000,3320.026
3.697000,3320.026
3.698000,3320.026
3.699000,3320.026
3.700000,3320.026
3.701000,3328.705
3.702000,3328.705
3.703000,3328.705
3.704000,3328.705
3.705000,3328.705
3.706000,3324.890
3.707000,3324.890
3.708000,3324.890
3.709000,3324.890
3.710000,3324.890
3.711000,3323.936
3.712000,3323.936
3.713000,3323.936
3.714000,3323.936
3.715000,3315.163
3.716000,3315.163
3.717000,3315.163
3.718000,3315.163
3.719000,3315.163
3.720000,3316.545
3.721000,3316.545
3.722000,3316.545
3.723000,3316.545
3.724000,3316.545
3.725000,3316.593
3.726000,3316.593
3.727000,3316.593
3.728000,3316.593
3.729000,3316.593
3.730000,3319.025
3.731000,3319.025
3.732000,3319.025
3.733000,3319.025
3.734000,3319.025
3.735000,3318.691
3.736000,3318.691
3.737000,3318.691
3.738000,3318.691
3.739000,3318.691
3.740000,3320.122
3.741000,3320.122
3.742000,3320.122
3.743000,3320.122
3.744000,0.000
3.745000,3321.695
3.746000,3321.695
3.747000,3321.695
3.748000,3321.695
3.749000,3321.695
3.750000,0.000
3.751000,0.000
3.752000,0.000
3.753000,0.000
3.754000,0.000
3.755000,3321.028
3.756000,3321.028
3.757000,3321.028
3.758000,3321.028
3.759000,3321.028
3.760000,3321.075
3.761000,3321.075
3.762000,3321.075
3.763000,3321.075
3.764000,3321.075
3.765000,3318.977
3.766000,3318.977
3.767000,3318.977
3.768000,3318.977
3.769000,3318.977
3.770000,3318.357
3.771000,3318.357
3.772000,3318.357
3.773000,3318.357
3.774000,3318.357
3.775000,3318.596
3.776000,3318.596
3.777000,3318.596
3.778000,3318.596
3.779000,3327.751
3.780000,3327.751
3.781000,3327.751
3.782000,3327.751
3.783000,3327.751
3.784000,3323.030
3.785000,3323.030
3.786000,3323.030
3.787000,3323.030
3.788000,3323.030
3.789000,3321.743
3.790000,3321.743
3.791000,3321.743
3.792000,3321.743
3.793000,3321.743
3.794000,3320.026
3.795000,3320.026
3.796000,3320.026
3.797000,3320.026
3.798000,3320.026
3.799000,3319.550
3.800000,3319.550
3.801000,3319.550
3.802000,3319.550
3.803000,3319.550
3.804000,3319.407
3.805000,3319.407
3.806000,3319.407
3.807000,3319.407
3.808000,0.000
3.809000,3312.731
3.810000,3312.731
3.811000,3312.731
3.812000,3312.731
3.813000,3312.731
3.814000,3320.932
3.815000,3320.932
3.816000,3320.932
3.817000,3320.932
3.818000,3320.932
3.819000,3322.554
3.820000,3322.554
3.821000,3322.554
3.822000,3322.554
3.823000,3322.554
3.824000,3323.030
3.825000,3323.030
3.826000,3323.030
3.827000,3323.030
3.828000,3323.030
3.829000,3323.460
3.830000,3323.460
3.831000,3323.460
3.832000,3323.460
3.833000,3323.460
3.834000,3321.695
3.835000,3321.695
3.836000,3321.695
3.837000,3321.695
3.838000,3321.695
3.839000,3320.074
3.840000,3320.074
3.841000,3320.074
3.842000,3320.074
3.843000,3319.836
3.844000,3319.836
3.845000,3319.836
3.846000,3319.836
3.847000,3319.836
3.848000,3321.266
3.849000,3321.266
3.850000,3321.266
3.851000,3321.266
3.852000,3321.266
3.853000,3322.077
3.854000,3322.077
3.855000,3322.077
3.856000,3322.077
3.857000,3322.077
3.858000,3321.791
3.859000,3321.791
3.860000,3321.791
3.861000,3321.791
3.862000,3321.791
3.863000,3325.653
3.864000,3325.653
3.865000,3325.653
3.866000,3325.653
3.867000,3325.653
3.868000,3326.273
3.869000,3326.273
3.870000,3326.273
3.871000,3326.273
3.872000,0.000
3.873000,3323.936
3.874000,3323.936
3.875000,3323.936
3.876000,3323.936
3.877000,3323.936
3.878000,3315.878
3.879000,3315.878
3.880000,3315.878
3.881000,3315.878
3.882000,3315.878
3.883000,3315.496
3.884000,3315.496
3.885000,3315.496
3.886000,3315.496
3.887000,3315.496
3.888000,3324.080
3.889000,3324.080
3.890000,3324.080
3.891000,3324.080
3.892000,3324.080
3.893000,3327.799
3.894000,3327.799
3.895000,3327.799
3.896000,3327.799
3.897000,3327.799
3.898000,3328.037
3.899000,3328.037
3.900000,3328.037
3.901000,3328.037
3.902000,3328.037
3.903000,3326.225
3.904000,3326.225
3.905000,3326.225
3.906000,3326.225
3.907000,0.000
3.908000,0.000
3.909000,0.000
3.910000,0.000
3.911000,0.000
3.912000,3317.308
3.913000,3317.308
3.914000,3317.308
3.915000,3317.308
3.916000,3317.308
3.917000,3314.590
3.918000,3314.590
3.919000,3314.590
3.920000,3314.590
3.921000,3314.590
3.922000,3316.355
3.923000,3316.355
3.924000,3316.355
3.925000,3316.355
3.926000,3316.355
3.927000,3320.742
3.928000,3320.742
3.929000,3320.742
3.930000,3320.742
3.931000,3320.742
3.932000,3320.360
3.933000,3320.360
3.934000,3320.360
3.935000,3320.360
3.936000,0.000
3.937000,3322.029
3.938000,3322.029
3.939000,3322.029
3.940000,3322.029
3.941000,3322.029
3.942000,3322.983
3.943000,3322.983
3.944000,3322.983
3.945000,3322.983
3.946000,3322.983
3.947000,3317.404
3.948000,3317.404
3.949000,3317.404
3.950000,3317.404
3.951000,3317.404
3.952000,3314.114
3.953000,3314.114
3.954000,3314.114
3.955000,3314.114
3.956000,3314.114
3.957000,3315.401
3.958000,3315.401
3.959000,3315.401
3.960000,3315.401
3.961000,3315.401
3.962000,3318.930
3.963000,3318.930
3.964000,3318.930
3.965000,3318.930
3.966000,3318.930
3.967000,3319.836
3.968000,3319.836
3.969000,3319.836
3.970000,3319.836
3.971000,3326.845
3.972000,3326.845
3.973000,3326.845
3.974000,3326.845
3.975000,3326.845
3.976000,3325.176
3.977000,3325.176
3.978000,3325.176
3.979000,3325.176
3.980000,3325.176
3.981000,3325.272
3.982000,3325.272
3.983000,3325.272
3.984000,3325.272
3.985000,3325.272
3.986000,3324.175
3.987000,3324.175
3.988000,3324.175
3.989000,3324.175
3.990000,3324.175
3.991000,3323.174
3.992000,3323.174
3.993000,3323.174
3.994000,3323.174
3.995000,3323.174
3.996000,3321.409
3.997000,3321.409
3.998000,3321.409
3.999000,3321.409
4.000000,0.000
4.001000,3321.314
4.002000,3321.314
4.003000,3321.314
4.004000,3321.314
4.005000,3321.314
4.006000,3318.596
4.007000,3318.596
4.008000,3318.596
4.009000,3318.596
4.010000,3318.596
4.011000,3328.609
4.012000,3328.609
4.013000,3328.609
4.014000,3328.609
4.015000,3328.609
4.016000,3325.844
4.017000,3325.844
4.018000,3325.844
4.019000,3325.844
4.020000,3325.844
4.021000,3324.318
4.022000,3324.318
4.023000,3324.318
4.024000,3324.318
4.025000,3324.318
4.026000,3323.269
4.027000,3323.269
4.028000,3323.269
4.029000,3323.269
4.030000,3323.269
4.031000,3320.646
4.032000,3320.646
4.033000,3320.646
4.034000,3320.646
4.035000,3318.596
4.036000,3318.596
4.037000,3318.596
4.038000,3318.596
4.039000,3318.596
4.040000,3319.979
4.041000,3319.979
4.042000,3319.979
4.043000,3319.979
4.044000,3319.979
4.045000,3320.789
4.046000,3320.789
4.047000,3320.789
4.048000,3320.789
4.049000,3320.789
4.050000,3324.223
4.051000,3324.223
4.052000,3324.223
4.053000,3324.223
4.054000,3324.223
4.055000,3323.698
4.056000,3323.698
4.057000,3323.698
4.058000,3323.698
4.059000,3323.698
4.060000,3325.415
4.061000,3325.415
4.062000,3325.415
4.063000,3325.415
4.064000,0.000
4.065000,3326.845
4.066000,3326.845
4.067000,3326.845
4.068000,3326.845
4.069000,3326.845
4.070000,3318.644
4.071000,3318.644
4.072000,3318.644
4.073000,3318.644
4.074000,3318.644
4.075000,3321.123
4.076000,3321.123
4.077000,3321.123
4.078000,3321.123
4.079000,3321.123
4.080000,3321.791
4.081000,3321.791
4.082000,3321.791
4.083000,3321.791
4.084000,3321.791
4.085000,3321.791
4.086000,3321.791
4.087000,3321.791
4.088000,3321.791
4.089000,3321.791
4.090000,3322.506
4.091000,3322.506
4.092000,3322.506
4.093000,3322.506
4.094000,3322.506
4.095000,3324.556
4.096000,3324.556
4.097000,3324.556
4.098000,3324.556
4.099000,3320.599
4.100000,3320.599
4.101000,3320.599
4.102000,3320.599
4.103000,3320.599
4.104000,3319.454
4.105000,3319.454
4.106000,3319.454
4.107000,3319.454
4.108000,3319.454
4.109000,3320.026
4.110000,3320.026
4.111000,3320.026
4.112000,3320.026
4.113000,3320.026
4.114000,3314.781
4.115000,3314.781
4.116000,3314.781
4.117000,3314.781
4.118000,3314.781
4.119000,3313.780
4.120000,3313.780
4.121000,3313.780
4.122000,3313.780
4.123000,3313.780
4.124000,3317.118
4.125000,3317.118
4.126000,3317.118
4.127000,3317.118
4.128000,0.000
4.129000,3319.836
4.130000,3319.836
4.131000,3319.836
4.132000,3319.836
4.133000,-200000.000
4.134000,0.000
4.135000,0.000
4.136000,0.000
4.137000,0.000
4.138000,0.000
4.139000,3320.599
4.140000,3320.599
4.141000,3320.599
4.142000,3320.599
4.143000,3320.599
4.144000,3319.454
4.145000,3319.454
4.146000,3319.454
4.147000,3319.454
4.148000,3319.454
4.149000,3315.115
4.150000,3315.115
4.151000,3315.115
4.152000,3315.115
4.153000,3315.115
4.154000,3315.830
4.155000,3315.830
4.156000,3315.830
4.157000,3315.830
4.158000,3315.830
4.159000,3319.883
4.160000,3319.883
4.161000,3319.883
4.162000,3319.883
4.163000,3327.560
4.164000,3327.560
4.165000,3327.560
4.166000,3327.560
4.167000,3327.560
4.168000,3328.228
4.169000,3328.228
4.170000,3328.228
4.171000,3328.228
4.172000,3328.228
4.173000,3325.176
4.174000,3325.176
4.175000,3325.176
4.176000,3325.176
4.177000,3325.176
4.178000,3324.032
4.179000,3324.032
4.180000,3324.032
4.181000,3324.032
4.182000,3324.032
4.183000,3322.697
4.184000,3322.697
4.185000,3322.697
4.186000,3322.697
4.187000,3322.697
4.188000,3321.409
4.189000,3321.409
4.190000,3321.409
4.191000,3321.409
4.192000,0.000
4.193000,3326.607
4.194000,3326.607
4.195000,3326.607
4.196000,3326.607
4.197000,3326.607
4.198000,3328.800
4.199000,3328.800
4.200000,3328.800
4.201000,3328.800
4.202000,3328.800
4.203000,3326.702
4.204000,3326.702
4.205000,3326.702
4.206000,3326.702
4.207000,3326.702
4.208000,3323.317
4.209000,3323.317
4.210000,3323.317
4.211000,3323.317
4.212000,3323.317
4.213000,3323.364
4.214000,3323.364
4.215000,3323.364
4.216000,3323.364
4.217000,3323.364
4.218000,3322.887
4.219000,3322.887
4.220000,3322.887
4.221000,3322.887
4.222000,3322.887
4.223000,3319.883
4.224000,3319.883
4.225000,3319.883
4.226000,3319.883
4.227000,3319.311
4.228000,3319.311
4.229000,3319.311
4.230000,3319.311
4.231000,3319.311
4.232000,3318.882
4.233000,3318.882
4.234000,3318.882
4.235000,3318.882
4.236000,3318.882
4.237000,3324.175
4.238000,3324.175
4.239000,3324.175
4.240000,3324.175
4.241000,3324.175
4.242000,3324.127
4.243000,3324.127
4.244000,3324.127
4.245000,3324.127
4.246000,3324.127
4.247000,3324.556
4.248000,3324.556
4.249000,3324.556
4.250000,3324.556
4.251000,3324.556
4.252000,3325.033
4.253000,3325.033
4.254000,3325.033
4.255000,3325.033
4.256000,0.000
4.257000,3318.119
4.258000,3318.119
4.259000,3318.119
4.260000,3318.119
4.261000,3318.119
4.262000,3320.932
4.263000,3320.932
4.264000,3320.932
4.265000,3320.932
4.266000,3320.932
4.267000,3320.885
4.268000,3320.885
4.269000,3320.885
4.270000,3320.885
4.271000,3320.885
4.272000,3320.313
4.273000,3320.313
4.274000,3320.313
4.275000,3320.313
4.276000,3320.313
4.277000,3320.837
4.278000,3320.837
4.279000,3320.837
4.280000,3320.837
4.281000,3320.837
4.282000,3322.363
4.283000,3322.363
4.284000,3322.363
4.285000,3322.363
4.286000,3322.363
4.287000,3328.991
4.288000,3328.991
4.289000,3328.991
4.290000,3328.991
4.291000,3320.837
4.292000,3320.837
4.293000,3320.837
4.294000,3320.837
4.295000,3320.837
4.296000,3319.979
4.297000,3319.979
4.298000,3319.979
4.299000,3319.979
4.300000,3319.979
4.301000,3319.263
4.302000,3319.263
4.303000,3319.263
4.304000,3319.263
4.305000,3319.263
4.306000,3314.638
4.307000,3314.638
4.308000,3314.638
4.309000,3314.638
4.310000,3314.638
4.311000,3314.877
4.312000,3314.877
4.313000,3314.877
4.314000,3314.877
4.315000,3321.648
4.316000,3321.648
4.317000,3321.648
4.318000,3321.648
4.319000,3321.648
4.320000,3326.225
4.321000,3326.225
4.322000,3326.225
4.323000,0.000
4.324000,0.000
4.325000,0.000
4.326000,0.000
4.327000,0.000
4.328000,0.000
4.329000,3321.505
4.330000,3321.505
4.331000,3321.505
4.332000,3321.505
4.333000,3321.505
4.334000,3321.457
4.335000,3321.457
4.336000,3321.457
4.337000,3321.457
4.338000,3321.457
4.339000,3316.116
4.340000,3316.116
4.341000,3316.116
4.342000,3316.116
4.343000,3316.116
4.344000,3314.018
4.345000,3314.018
4.346000,3314.018
4.347000,3314.018
4.348000,3314.018
4.349000,3317.165
4.350000,3317.165
4.351000,3317.165
4.352000,3317.165
4.353000,3319.263
4.354000,3319.263
4.355000,3319.263
4.356000,3319.263
4.357000,3326.607
4.358000,3326.607
4.359000,3326.607
4.360000,3326.607
4.361000,3326.607
4.362000,3323.936
4.363000,3323.936
4.364000,3323.936
4.365000,3323.936
4.366000,3323.936
4.367000,3323.555
4.368000,3323.555
4.369000,3323.555
4.370000,3323.555
4.371000,3323.555
4.372000,3316.545
4.373000,3316.545
4.374000,3316.545
4.375000,3316.545
4.376000,3316.545
4.377000,3313.589
4.378000,3313.589
4.379000,3313.589
4.380000,3313.589
4.381000,3313.589
4.382000,3315.210
4.383000,3315.210
4.384000,3315.210
4.385000,3315.210
4.386000,3323.317
4.387000,3323.317
4.388000,3323.317
4.389000,3323.317
4.390000,3323.317
4.391000,3327.417
4.392000,3327.417
4.393000,3327.417
4.394000,3327.417
4.395000,3327.417
4.396000,3325.605
4.397000,3325.605
4.398000,3325.605
4.399000,3325.605
4.400000,3325.605
4.401000,3324.556
4.402000,3324.556
4.403000,3324.556
4.404000,3324.556
4.405000,3324.556
4.406000,3323.889
4.407000,3323.889
4.408000,3323.889
4.409000,3323.889
4.410000,3323.889
4.411000,3322.506
4.412000,3322.506
4.413000,3322.506
4.414000,3322.506
4.415000,3322.506
4.416000,3321.362
4.417000,3321.362
4.418000,3321.362
4.419000,0.000
4.420000,3320.026
4.421000,3320.026
4.422000,3320.026
4.423000,3320.026
4.424000,3320.026
4.425000,3320.456
4.426000,3320.456
4.427000,3320.456
4.428000,3320.456
4.429000,3320.456
4.430000,3319.979
4.431000,3319.979
4.432000,3319.979
4.433000,3319.979
4.434000,3319.979
4.435000,3327.703
4.436000,3327.703
4.437000,3327.703
4.438000,3327.703
4.439000,3327.703
4.440000,3324.652
4.441000,3324.652
4.442000,3324.652
4.443000,3324.652
4.444000,3324.652
4.445000,3321.838
4.446000,3321.838
4.447000,3321.838
4.448000,3321.838
4.449000,3322.554
4.450000,3322.554
4.451000,3322.554
4.452000,3322.554
4.453000,3315.258
4.454000,3315.258
4.455000,3315.258
4.456000,3315.258
4.457000,3315.258
4.458000,3319.454
4.459000,3319.454
4.460000,3319.454
4.461000,3319.454
4.462000,3319.454
4.463000,3322.172
4.464000,3322.172
4.465000,3322.172
4.466000,3322.172
4.467000,3322.172
4.468000,3322.124
4.469000,3322.124
4.470000,3322.124
4.471000,3322.124
4.472000,3322.124
4.473000,3322.983
4.474000,3322.983
4.475000,3322.983
4.476000,3322.983
4.477000,3322.983
4.478000,3322.744
4.479000,3322.744
4.480000,3322.744
4.481000,3322.744
4.482000,3322.887
4.483000,3322.887
4.484000,3322.887
4.485000,3322.887
4.486000,3322.887
4.487000,3321.838
4.488000,3321.838
4.489000,3321.838
4.490000,3321.838
4.491000,3321.838
4.492000,3322.268
4.493000,3322.268
4.494000,3322.268
4.495000,3322.268
4.496000,3322.268
4.497000,3320.885
4.498000,3320.885
4.499000,3320.885
4.500000,3320.885
4.501000,3320.885
4.502000,3319.454
4.503000,3319.454
4.504000,3319.454
4.505000,3319.454
4.506000,3319.454
4.507000,3320.026
4.508000,3320.026
4.509000,3320.026
4.510000,3320.026
4.511000,3320.026
4.512000,3320.169
4.513000,3320.169
4.514000,3320.169
4.515000,0.000
4.516000,3326.082
4.517000,3326.082
4.518000,3326.082
4.519000,3326.082
4.520000,3326.082
4.521000,3325.367
4.522000,3325.367
4.523000,3325.367
4.524000,3325.367
4.525000,3325.367
4.526000,3324.461
4.527000,3324.461
4.528000,3324.461
4.529000,3324.461
4.530000,3324.461
4.531000,3325.367
4.532000,3325.367
4.533000,3325.367
4.534000,3325.367
4.535000,3325.367
4.536000,3322.744
4.537000,3322.744
4.538000,3322.744
4.539000,3322.744
4.540000,3322.744
4.541000,3321.838
4.542000,3321.838
4.543000,3321.838
4.544000,3321.838
4.545000,3319.931
4.546000,3319.931
4.547000,3319.931
4.548000,3319.931
4.549000,3320.694
4.550000,3320.694
4.551000,3320.694
4.552000,3320.694
4.553000,3320.694
4.554000,3320.646
4.555000,3320.646
4.556000,3320.646
4.557000,3320.646
4.558000,3320.646
4.559000,3320.360
4.560000,3320.360
4.561000,3320.360
4.562000,3320.360
4.563000,3320.360
4.564000,3324.318
4.565000,3324.318
4.566000,3324.318
4.567000,3324.318
4.568000,3324.318
4.569000,3323.698
4.570000,3323.698
4.571000,3323.698
4.572000,3323.698
4.573000,3323.698
4.574000,3322.554
4.575000,3322.554
4.576000,3322.554
4.577000,3322.554
4.578000,3319.883
4.579000,3319.883
4.580000,3319.883
4.581000,3319.883
4.582000,3319.883
4.583000,3318.548
4.584000,3318.548
4.585000,3318.548
4.586000,3318.548
4.587000,3318.548
4.588000,3321.218
4.589000,3321.218
4.590000,3321.218
4.591000,3321.218
4.592000,3321.218
4.593000,3322.649
4.594000,3322.649
4.595000,3322.649
4.596000,3322.649
4.597000,3322.649
4.598000,3323.841
4.599000,3323.841
4.600000,3323.841
4.601000,3323.841
4.602000,3323.841
4.603000,3327.322
4.604000,3327.322
4.605000,3327.322
4.606000,3327.322
4.607000,3327.322
4.608000,3326.368
4.609000,3326.368
4.610000,3326.368
4.611000,0.000
4.612000,0.000
4.613000,0.000
4.614000,0.000
4.615000,0.000
4.616000,0.000
4.617000,3318.548
4.618000,3318.548
4.619000,3318.548
4.620000,3318.548
4.621000,3318.548
4.622000,3313.875
4.623000,3313.875
4.624000,3313.875
4.625000,3313.875
4.626000,3313.875
4.627000,3313.208
4.628000,3313.208
4.629000,3313.208
4.630000,3313.208
4.631000,3313.208
4.632000,3321.934
4.633000,3321.934
4.634000,3321.934
4.635000,3321.934
4.636000,3321.934
4.637000,3322.029
4.638000,3322.029
4.639000,3322.029
4.640000,3322.029
4.641000,3324.413
4.642000,3324.413
4.643000,3324.413
4.644000,3324.413
4.645000,3324.938
4.646000,3324.938
4.647000,3324.938
4.648000,3324.938
4.649000,3324.938
4.650000,3320.885
4.651000,3320.885
4.652000,3320.885
4.653000,3320.885
4.654000,3320.885
4.655000,3319.263
4.656000,3319.263
4.657000,3319.263
4.658000,3319.263
4.659000,3319.263
4.660000,3321.552
4.661000,3321.552
4.662000,3321.552
4.663000,3321.552
4.664000,3321.552
4.665000,3317.881
4.666000,3317.881
4.667000,3317.881
4.668000,3317.881
4.669000,3317.881
4.670000,3316.784
4.671000,3316.784
4.672000,3316.784
4.673000,3316.784
4.674000,3321.791
4.675000,3321.791
4.676000,3321.791
4.677000,3321.791
4.678000,3321.791
4.679000,3323.650
4.680000,3323.650
4.681000,3323.650
4.682000,3323.650
4.683000,3323.650
4.684000,3326.797
4.685000,3326.797
4.686000,3326.797
4.687000,3326.797
4.688000,3326.797
4.689000,3326.321
4.690000,3326.321
4.691000,3326.321
4.692000,3326.321
4.693000,3326.321
4.694000,3324.842
4.695000,3324.842
4.696000,3324.842
4.697000,3324.842
4.698000,3324.842
4.699000,3321.934
4.700000,3321.934
4.701000,3321.934
4.702000,3321.934
4.703000,3321.934
4.704000,3323.507
4.705000,3323.507
4.706000,3323.507
4.707000,3323.507
4.708000,3323.507
4.709000,3322.744
4.710000,3322.744
4.711000,3322.744
4.712000,3322.744
4.713000,3322.744
4.714000,3324.842
4.715000,3324.842
4.716000,3324.842
4.717000,3324.842
4.718000,3324.842
4.719000,3327.274
4.720000,3327.274
4.721000,3327.274
4.722000,3327.274
4.723000,3327.274
4.724000,3325.558
4.725000,3325.558
4.726000,3325.558
4.727000,3325.558
4.728000,3325.558
4.729000,3323.364
4.730000,3323.364
4.731000,3323.364
4.732000,3323.364
4.733000,3323.364
4.734000,3321.934
4.735000,3321.934
4.736000,3321.934
4.737000,3321.934
4.738000,3316.593
4.739000,3316.593
4.740000,3316.593
4.741000,3316.593
4.742000,3316.593
4.743000,3316.784
4.744000,3316.784
4.745000,3316.784
4.746000,3316.784
4.747000,3316.784
4.748000,3318.739
4.749000,3318.739
4.750000,3318.739
4.751000,3318.739
4.752000,3318.739
4.753000,3321.600
4.754000,3321.600
4.755000,3321.600
4.756000,3321.600
4.757000,3321.600
4.758000,3321.791
4.759000,3321.791
4.760000,3321.791
4.761000,3321.791
4.762000,3321.791
4.763000,3325.367
4.764000,3325.367
4.765000,3325.367
4.766000,3325.367
4.767000,3325.367
4.768000,3324.461
4.769000,3324.461
4.770000,3324.461
4.771000,0.000
4.772000,3318.262
4.773000,3318.262
4.774000,3318.262
4.775000,3318.262
4.776000,3318.262
4.777000,3314.972
4.778000,3314.972
4.779000,3314.972
4.780000,3314.972
4.781000,3314.972
4.782000,3316.116
4.783000,3316.116
4.784000,3316.116
4.785000,3316.116
4.786000,3316.116
4.787000,3319.502
4.788000,3319.502
4.789000,3319.502
4.790000,3319.502
4.791000,3319.502
4.792000,3318.167
4.793000,3318.167
4.794000,3318.167
4.795000,3318.167
4.796000,3318.167
4.797000,3319.502
4.798000,3319.502
4.799000,3319.502
4.800000,3319.502
4.801000,3321.362
4.802000,3321.362
4.803000,3321.362
4.804000,3321.362
4.805000,0.000
4.806000,0.000
4.807000,0.000
4.808000,0.000
4.809000,0.000
4.810000,3325.272
4.811000,3325.272
4.812000,3325.272
4.813000,3325.272
4.814000,3325.272
4.815000,3322.983
4.816000,3322.983
4.817000,3322.983
4.818000,3322.983
4.819000,3322.983
4.820000,3321.695
4.821000,3321.695
4.822000,3321.695
4.823000,3321.695
4.824000,3321.695
4.825000,3319.263
4.826000,3319.263
4.827000,3319.263
4.828000,3319.263
4.829000,3319.263
4.830000,3318.739
4.831000,3318.739
4.832000,3318.739
4.833000,3318.739
4.834000,3325.987
4.835000,3325.987
4.836000,3325.987
4.837000,3325.987
4.838000,3325.987
4.839000,3328.276
4.840000,3328.276
4.841000,3328.276
4.842000,3328.276
4.843000,3328.276
4.844000,3325.415
4.845000,3325.415
4.846000,3325.415
4.847000,3325.415
4.848000,3325.415
4.849000,3324.461
4.850000,3324.461
4.851000,3324.461
4.852000,3324.461
4.853000,3324.461
4.854000,3322.315
4.855000,3322.315
4.856000,3322.315
4.857000,3322.315
4.858000,3322.315
4.859000,3322.172
4.860000,3322.172
4.861000,3322.172
4.862000,3322.172
4.863000,3322.172
4.864000,3321.314
4.865000,3321.314
4.866000,3321.314
4.867000,0.000
4.868000,3317.404
4.869000,3317.404
4.870000,3317.404
4.871000,3317.404
4.872000,3317.404
4.873000,3320.122
4.874000,3320.122
4.875000,3320.122
4.876000,3320.122
4.877000,3320.122
4.878000,3321.552
4.879000,3321.552
4.880000,3321.552
4.881000,3321.552
4.882000,3321.552
4.883000,3323.650
4.884000,3323.650
4.885000,3323.650
4.886000,3323.650
4.887000,3323.650
4.888000,3320.837
4.889000,3320.837
4.890000,3320.837
4.891000,3320.837
4.892000,3320.837
4.893000,3324.699
4.894000,3324.699
4.895000,3324.699
4.896000,3324.699
4.897000,3314.638
4.898000,3314.638
4.899000,3314.638
4.900000,3314.638
4.901000,3314.638
4.902000,3318.214
4.903000,3318.214
4.904000,3318.214
4.905000,3318.214
4.906000,3318.214
4.907000,3318.501
4.908000,3318.501
4.909000,3318.501
4.910000,3318.501
4.911000,3318.501
4.912000,3318.024
4.913000,3318.024
4.914000,3318.024
4.915000,3318.024
4.916000,3318.024
4.917000,3320.885
4.918000,3320.885
4.919000,3320.885
4.920000,3320.885
4.921000,3320.885
4.922000,3322.983
4.923000,3322.983
4.924000,3322.983
4.925000,3322.983
4.926000,3322.983
4.927000,3323.698
4.928000,3323.698
4.929000,3323.698
4.930000,3323.698
4.931000,0.000
4.932000,0.000
4.933000,0.000
4.934000,0.000
4.935000,0.000
4.936000,3320.932
4.937000,3320.932
4.938000,3320.932
4.939000,3320.932
4.940000,3320.932
4.941000,3319.597
4.942000,3319.597
4.943000,3319.597
4.944000,3319.597
4.945000,3319.597
4.946000,3318.405
4.947000,3318.405
4.948000,3318.405
4.949000,3318.405
4.950000,3318.405
4.951000,3313.637
4.952000,3313.637
4.953000,3313.637
4.954000,3313.637
4.955000,3313.637
4.956000,3313.112
4.957000,3313.112
4.958000,3313.112
4.959000,3313.112
4.960000,12.922
4.961000,3322.268
4.962000,3322.268
4.963000,3322.268
4.964000,3322.268
4.965000,3322.268
4.966000,3322.077
4.967000,3322.077
4.968000,3322.077
4.969000,3322.077
4.970000,3322.077
4.971000,3321.457
4.972000,3321.457
4.973000,3321.457
4.974000,3321.457
4.975000,3321.457
4.976000,3319.693
4.977000,3319.693
4.978000,3319.693
4.979000,3319.693
4.980000,3319.693
4.981000,3320.599
4.982000,3320.599
4.983000,3320.599
4.984000,3320.599
4.985000,3320.599
4.986000,3315.973
4.987000,3315.973
4.988000,3315.973
4.989000,3315.973
4.990000,3315.973
4.991000,3315.258
4.992000,3315.258
4.993000,3315.258
4.994000,3315.258
4.995000,3323.555
4.996000,3323.555
4.997000,3323.555
4.998000,3323.555
4.999000,3323.555
5.000000,3323.221
5.001000,3323.221
5.002000,3323.221
5.003000,3323.221
5.004000,3323.221
5.005000,3327.703
5.006000,3327.703
5.007000,3327.703
5.008000,3327.703
5.009000,3327.703
5.010000,3327.417
5.011000,3327.417
5.012000,3327.417
5.013000,3327.417
5.014000,3327.417
5.015000,3324.318
5.016000,3324.318
5.017000,3324.318
5.018000,3324.318
5.019000,3324.318
5.020000,3322.029
5.021000,3322.029
5.022000,3322.029
5.023000,3322.029
5.024000,12.970
5.025000,3320.646
5.026000,3320.646
5.027000,3320.646
5.028000,3320.646
5.029000,3320.646
5.030000,3321.218
5.031000,3321.218
5.032000,3321.218
5.033000,3321.218
5.034000,3321.218
5.035000,3320.885
5.036000,3320.885
5.037000,3320.885
5.038000,3320.885
5.039000,3320.885
5.040000,3323.936
5.041000,3323.936
5.042000,3323.936
5.043000,3323.936
5.044000,3323.936
5.045000,3326.368
5.046000,3326.368
5.047000,3326.368
5.048000,3326.368
5.049000,3326.368
5.050000,3324.938
5.051000,3324.938
5.052000,3324.938
5.053000,3324.938
5.054000,3324.938
5.055000,3323.889
5.056000,3323.889
5.057000,3323.889
5.058000,3323.889
5.059000,3314.829
5.060000,3314.829
5.061000,3314.829
5.062000,3314.829
5.063000,3314.829
5.064000,3313.684
5.065000,3313.684
5.066000,3313.684
5.067000,3313.684
5.068000,3313.684
5.069000,3316.116
5.070000,3316.116
5.071000,3316.116
5.072000,3316.116
5.073000,3316.116
5.074000,3319.311
5.075000,3319.311
5.076000,3319.311
5.077000,3319.311
5.078000,3319.311
5.079000,3319.740
5.080000,3319.740
5.081000,3319.740
5.082000,3319.740
5.083000,3319.740
5.084000,3320.932
5.085000,3320.932
5.086000,3320.932
5.087000,3320.932
5.088000,12.970
5.089000,3320.456
5.090000,3320.456
5.091000,3320.456
5.092000,3320.456
5.093000,3320.456
5.094000,3320.408
5.095000,3320.408
5.096000,3320.408
5.097000,3320.408
5.098000,3320.408
5.099000,3318.214
5.100000,3318.214
5.101000,3318.214
5.102000,3318.214
5.103000,3318.214
5.104000,3313.303
5.105000,3313.303
5.106000,3313.303
5.107000,3313.303
5.108000,3313.303
5.109000,3315.401
5.110000,3315.401
5.111000,3315.401
5.112000,3315.401
5.113000,3315.401
5.114000,3316.545
5.115000,3316.545
5.116000,3316.545
5.117000,3316.545
5.118000,3316.545
5.119000,3317.547
5.120000,3317.547
5.121000,3317.547
5.122000,3317.547
5.123000,3327.322
5.124000,3327.322
5.125000,3327.322
5.126000,3327.322
5.127000,3327.322
5.128000,3325.844
5.129000,3325.844
5.130000,3325.844
5.131000,3325.844
5.132000,3325.844
5.133000,3323.507
5.134000,3323.507
5.135000,3323.507
5.136000,3323.507
5.137000,3323.507
5.138000,3322.983
5.139000,3322.983
5.140000,3322.983
5.141000,3322.983
5.142000,3322.983
5.143000,3322.506
5.144000,3322.506
5.145000,3322.506
5.146000,3322.506
5.147000,3322.506
5.148000,3321.123
5.149000,3321.123
5.150000,3321.123
5.151000,3321.123
5.152000,0.000
5.153000,3321.457
5.154000,3321.457
5.155000,3321.457
5.156000,3321.457
5.157000,3321.457
5.158000,3326.035
5.159000,3326.035
5.160000,3326.035
5.161000,3326.035
5.162000,3326.035
5.163000,3327.370
5.164000,3327.370
5.165000,3327.370
5.166000,3327.370
5.167000,3327.370
5.168000,3326.130
5.169000,3326.130
5.170000,3326.130
5.171000,3326.130
5.172000,3326.130
5.173000,3323.841
5.174000,3323.841
5.175000,3323.841
5.176000,3323.841
5.177000,3323.841
5.178000,3322.935
5.179000,3322.935
5.180000,3322.935
5.181000,3322.935
5.182000,3322.935
5.183000,3320.789
5.184000,3320.789
5.185000,3320.789
5.186000,3320.789
5.187000,3446.960
5.188000,3446.960
5.189000,3446.960
5.190000,3446.960
5.191000,3446.960
5.192000,3465.843
5.193000,3465.843
5.194000,3465.843
5.195000,3465.843
5.196000,3465.843
5.197000,3480.959
5.198000,3480.959
5.199000,3480.959
5.200000,3480.959
5.201000,3480.959
5.202000,3486.776
5.203000,3486.776
5.204000,3486.776
5.205000,3486.776
5.206000,3486.776
5.207000,3490.067
5.208000,3490.067
5.209000,3490.067
5.210000,3490.067
5.211000,3490.067
5.212000,3488.207
5.213000,3488.207
5.214000,3488.207
5.215000,3488.207
5.216000,0.000
5.217000,3578.377
5.218000,3578.377
5.219000,3578.377
5.220000,3578.377
5.221000,3578.377
5.222000,3579.521
5.223000,3579.521
5.224000,3579.521
5.225000,3579.521
5.226000,3579.521
5.227000,3575.850
5.228000,3575.850
5.229000,3575.850
5.230000,3575.850
5.231000,3575.850
5.232000,3547.478
5.233000,3547.478
5.234000,3547.478
5.235000,3547.478
5.236000,3547.478
5.237000,3536.701
5.238000,3536.701
5.239000,3536.701
5.240000,3536.701
5.241000,3536.701
5.242000,3536.177
5.243000,3536.177
5.244000,3536.177
5.245000,3536.177
5.246000,3536.177
5.247000,3534.079
5.248000,3534.079
5.249000,3534.079
5.250000,3534.079
5.251000,3374.004
5.252000,3374.004
5.253000,3374.004
5.254000,3374.004
5.255000,3374.004
5.256000,3371.906
5.257000,3371.906
5.258000,3371.906
5.259000,3371.906
5.260000,3371.906
5.261000,3365.135
5.262000,3365.135
5.263000,3365.135
5.264000,3365.135
5.265000,3365.135
5.266000,3331.566
5.267000,3331.566
5.268000,3331.566
5.269000,3331.566
5.270000,3331.566
5.271000,3313.112
5.272000,3313.112
5.273000,3313.112
5.274000,3313.112
5.275000,3313.112
5.276000,3315.449
5.277000,3315.449
5.278000,3315.449
5.279000,3315.449
5.280000,12.922
5.281000,0.000
5.282000,0.000
5.283000,0.000
5.284000,0.000
5.285000,0.000
5.286000,3323.936
5.287000,3323.936
5.288000,3323.936
5.289000,3323.936
5.290000,3323.936
5.291000,3322.983
5.292000,3322.983
5.293000,3322.983
5.294000,3322.983
5.295000,3322.983
5.296000,3321.457
5.297000,3321.457
5.298000,3321.457
5.299000,3321.457
5.300000,3321.457
5.301000,3318.453
5.302000,3318.453
5.303000,3318.453
5.304000,3318.453
5.305000,3318.453
5.306000,3319.645
5.307000,3319.645
5.308000,3319.645
5.309000,3319.645
5.310000,3319.645
5.311000,3315.115
5.312000,3315.115
5.313000,3315.115
5.314000,3315.115
5.315000,3321.075
5.316000,3321.075
5.317000,3321.075
5.318000,3321.075
5.319000,3321.075
5.320000,3322.458
5.321000,3322.458
5.322000,3322.458
5.323000,3322.458
5.324000,3322.458
5.325000,3323.412
5.326000,3323.412
5.327000,3323.412
5.328000,3323.412
5.329000,3323.412
5.330000,3327.417
5.331000,3327.417
5.332000,3327.417
5.333000,3327.417
5.334000,3327.417
5.335000,3328.133
5.336000,3328.133
5.337000,3328.133
5.338000,3328.133
5.339000,3328.133
5.340000,3326.225
5.341000,3326.225
5.342000,3326.225
5.343000,3326.225
5.344000,0.000
5.345000,3319.931
5.346000,3319.931
5.347000,3319.931
5.348000,3319.931
5.349000,3319.931
5.350000,3321.505
5.351000,3321.505
5.352000,3321.505
5.353000,3321.505
5.354000,3321.505
5.355000,3322.983
5.356000,3322.983
5.357000,3322.983
5.358000,3322.983
5.359000,3322.983
5.360000,3327.131
5.361000,3327.131
5.362000,3327.131
5.363000,3327.131
5.364000,3327.131
5.365000,3323.841
5.366000,3323.841
5.367000,3323.841
5.368000,3323.841
5.369000,3323.841
5.370000,3290.987
5.371000,3290.987
5.372000,3290.987
5.373000,3290.987
5.374000,3290.987
5.375000,3275.633
5.376000,3275.633
5.377000,3275.633
5.378000,3275.633
5.379000,3801.489
5.380000,3801.489
5.381000,3801.489
5.382000,3801.489
5.383000,3801.489
5.384000,3848.600
5.385000,3848.600
5.386000,3848.600
5.387000,3848.600
5.388000,3848.600
5.389000,3940.630
5.390000,3940.630
5.391000,3940.630
5.392000,3940.630
5.393000,3940.630
5.394000,3995.180
5.395000,3995.180
5.396000,3995.180
5.397000,3995.180
5.398000,3995.180
5.399000,4103.899
5.400000,4103.899
5.401000,4103.899
5.402000,4103.899
5.403000,4103.899
5.404000,4427.385
5.405000,4427.385
5.406000,4427.385
5.407000,4427.385
5.408000,0.000
5.409000,4561.901
5.410000,4561.901
5.411000,4561.901
5.412000,4561.901
5.413000,4561.901
5.414000,0.000
5.415000,0.000
5.416000,0.000
5.417000,0.000
5.418000,0.000
5.419000,3515.053
5.420000,3515.053
5.421000,3515.053
5.422000,3515.053
5.423000,3515.053
5.424000,3444.052
5.425000,3444.052
5.426000,3444.052
5.427000,3444.052
5.428000,3444.052
5.429000,3398.895
5.430000,3398.895
5.431000,3398.895
5.432000,3398.895
5.433000,3398.895
5.434000,3294.849
5.435000,3294.849
5.436000,3294.849
5.437000,3294.849
5.438000,3294.849
5.439000,3238.249
5.440000,3238.249
5.441000,3238.249
5.442000,3238.249
5.443000,3327.179
5.444000,3327.179
5.445000,3327.179
5.446000,3327.179
5.447000,3327.179
5.448000,3324.747
5.449000,3324.747
5.450000,3324.747
5.451000,3324.747
5.452000,3324.747
5.453000,3322.744
5.454000,3322.744
5.455000,3322.744
5.456000,3322.744
5.457000,3322.744
5.458000,3321.409
5.459000,3321.409
5.460000,3321.409
5.461000,3321.409
5.462000,3321.409
5.463000,3320.599
5.464000,3320.599
5.465000,3320.599
5.466000,3320.599
5.467000,3320.599
5.468000,3320.789
5.469000,3320.789
5.470000,3320.789
5.471000,3320.789
5.472000,12.922
5.473000,3323.460
5.474000,3323.460
5.475000,3323.460
5.476000,3323.460
5.477000,3323.460
5.478000,3327.465
5.479000,3327.465
5.480000,3327.465
5.481000,3327.465
5.482000,3327.465
5.483000,3324.938
5.484000,3324.938
5.485000,3324.938
5.486000,3324.938
5.487000,3324.938
5.488000,3323.746
5.489000,3323.746
5.490000,3323.746
5.491000,3323.746
5.492000,3323.746
5.493000,3324.223
5.494000,3324.223
5.495000,3324.223
5.496000,3324.223
5.497000,3324.223
5.498000,3324.127
5.499000,3324.127
5.500000,3324.127
5.501000,3324.127
5.502000,3324.127
5.503000,3321.791
5.504000,3321.791
5.505000,3321.791
5.506000,3321.791
5.507000,3319.645
5.508000,3319.645
5.509000,3319.645
5.510000,3319.645
5.511000,3319.645
5.512000,3320.742
5.513000,3320.742
5.514000,3320.742
5.515000,3320.742
5.516000,3320.742
5.517000,3321.218
5.518000,3321.218
5.519000,3321.218
5.520000,3321.218
5.521000,3321.218
5.522000,3323.841
5.523000,3323.841
5.524000,3323.841
5.525000,3323.841
5.526000,3323.841
5.527000,3323.841
5.528000,3323.841
5.529000,3323.841
5.530000,3323.841
5.531000,3323.841
5.532000,3326.941
5.533000,3326.941
5.534000,3326.941
5.535000,3326.941
5.536000,12.970
5.537000,3316.212
5.538000,3316.212
5.539000,3316.212
5.540000,3316.212
5.541000,3316.212
5.542000,3318.644
5.543000,3318.644
5.544000,3318.644
5.545000,3318.644
5.546000,3318.644
5.547000,3318.691
5.548000,3318.691
5.549000,3318.691
5.550000,3318.691
5.551000,3318.691
5.552000,3320.885
5.553000,3320.885
5.554000,3320.885
5.555000,3320.885
5.556000,3320.885
5.557000,3322.983
5.558000,3322.983
5.559000,3322.983
5.560000,3322.983
5.561000,3322.983
5.562000,3323.746
5.563000,3323.746
5.564000,3323.746
5.565000,3323.746
5.566000,3323.746
5.567000,3324.556
5.568000,3324.556
5.569000,3324.556
5.570000,3324.556
5.571000,3323.889
5.572000,3323.889
5.573000,3323.889
5.574000,3323.889
5.575000,3323.889
5.576000,3321.552
5.577000,3321.552
5.578000,3321.552
5.579000,3321.552
5.580000,3321.552
5.581000,3321.266
5.582000,3321.266
5.583000,3321.266
5.584000,3321.266
5.585000,3321.266
5.586000,3319.407
5.587000,3319.407
5.588000,3319.407
5.589000,3319.407
5.590000,3319.407
5.591000,3315.926
5.592000,3315.926
5.593000,3315.926
5.594000,3315.926
5.595000,3315.926
5.596000,3316.069
5.597000,3316.069
5.598000,3316.069
5.599000,3316.069
5.600000,12.922
5.601000,3374.481
5.602000,3374.481
5.603000,3374.481
5.604000,3374.481
5.605000,3374.481
5.606000,3374.481
5.607000,3374.481
5.608000,3374.481
5.609000,3374.481
5.610000,3374.481
5.611000,3374.147
5.612000,3374.147
5.613000,3374.147
5.614000,3374.147
5.615000,3374.147
5.616000,3389.978
5.617000,3389.978
5.618000,3389.978
5.619000,3389.978
5.620000,3389.978
5.621000,3395.605
5.622000,3395.605
5.623000,3395.605
5.624000,3395.605
5.625000,3395.605
5.626000,3392.410
5.627000,3392.410
5.628000,3392.410
5.629000,3392.410
5.630000,3392.410
5.631000,3395.987
5.632000,3395.987
5.633000,3395.987
5.634000,3395.987
5.635000,0.000
5.636000,0.000
5.637000,0.000
5.638000,0.000
5.639000,0.000
5.640000,3612.185
5.641000,3612.185
5.642000,3612.185
5.643000,3612.185
5.644000,3612.185
5.645000,3611.803
5.646000,3611.803
5.647000,3611.803
5.648000,3611.803
5.649000,3611.803
5.650000,3612.471
5.651000,3612.471
5.652000,3612.471
5.653000,3612.471
5.654000,3612.471
5.655000,3625.536
5.656000,3625.536
5.657000,3625.536
5.658000,3625.536
5.659000,3625.536
5.660000,3647.375
5.661000,3647.375
5.662000,3647.375
5.663000,3647.375
5.664000,0.000
5.665000,3653.765
5.666000,3653.765
5.667000,3653.765
5.668000,3653.765
5.669000,3653.765
5.670000,0.000
5.671000,0.000
5.672000,0.000
5.673000,0.000
5.674000,0.000
5.675000,3751.850
5.676000,3751.850
5.677000,3751.850
5.678000,3751.850
5.679000,3751.850
5.680000,3785.896
5.681000,3785.896
5.682000,3785.896
5.683000,3785.896
5.684000,3785.896
5.685000,3798.485
5.686000,3798.485
5.687000,3798.485
5.688000,3798.485
5.689000,3798.485
5.690000,3796.530
5.691000,3796.530
5.692000,3796.530
5.693000,3796.530
5.694000,3796.530
5.695000,3796.196
5.696000,3796.196
5.697000,3796.196
5.698000,3796.196
5.699000,3808.928
5.700000,3808.928
5.701000,3808.928
5.702000,3808.928
5.703000,3808.928
5.704000,3810.883
5.705000,3810.883
5.706000,3810.883
5.707000,3810.883
5.708000,3810.883
5.709000,3811.216
5.710000,3811.216
5.711000,3811.216
5.712000,3811.216
5.713000,3811.216
5.714000,3799.105
5.715000,3799.105
5.716000,3799.105
5.717000,3799.105
5.718000,3799.105
5.719000,3793.478
5.720000,3793.478
5.721000,3793.478
5.722000,3793.478
5.723000,3793.478
5.724000,3793.859
5.725000,3793.859
5.726000,3793.859
5.727000,3793.859
5.728000,3793.859
5.729000,3793.859
5.730000,3793.859
5.731000,3793.859
5.732000,3624.249
5.733000,3624.249
5.734000,3624.249
5.735000,3624.249
5.736000,3624.249
5.737000,3621.817
5.738000,3621.817
5.739000,3621.817
5.740000,3621.817
5.741000,3621.817
5.742000,3607.082
5.743000,3607.082
5.744000,3607.082
5.745000,3607.082
5.746000,3607.082
5.747000,3600.168
5.748000,3600.168
5.749000,3600.168
5.750000,3600.168
5.751000,3600.168
5.752000,3588.247
5.753000,3588.247
5.754000,3588.247
5.755000,3588.247
5.756000,3588.247
5.757000,3576.708
5.758000,3576.708
5.759000,3576.708
5.760000,3576.708
5.761000,3547.192
5.762000,3547.192
5.763000,3547.192
5.764000,3547.192
5.765000,3376.818
5.766000,3376.818
5.767000,3376.818
5.768000,3376.818
5.769000,3376.818
5.770000,3369.188
5.771000,3369.188
5.772000,3369.188
5.773000,3369.188
5.774000,3369.188
5.775000,3335.190
5.776000,3335.190
5.777000,3335.190
5.778000,3335.190
5.779000,3335.190
5.780000,3321.028
5.781000,3321.028
5.782000,3321.028
5.783000,3321.028
5.784000,3321.028
5.785000,3320.169
5.786000,3320.169
5.787000,3320.169
5.788000,3320.169
5.789000,3320.169
5.790000,3319.883
5.791000,3319.883
5.792000,3319.883
5.793000,3319.883
5.794000,3328.228
5.795000,3328.228
5.796000,3328.228
5.797000,3328.228
5.798000,3328.228
5.799000,3325.701
5.800000,3325.701
5.801000,3325.701
5.802000,3325.701
5.803000,3325.701
5.804000,3323.126
5.805000,3323.126
5.806000,3323.126
5.807000,3323.126
5.808000,3323.126
5.809000,3322.983
5.810000,3322.983
5.811000,3322.983
5.812000,3322.983
5.813000,3322.983
5.814000,3322.268
5.815000,3322.268
5.816000,3322.268
5.817000,3322.268
5.818000,3322.268
5.819000,3321.600
5.820000,3321.600
5.821000,3321.600
5.822000,3321.600
5.823000,3321.600
5.824000,3319.454
5.825000,3319.454
5.826000,3319.454
5.827000,0.000
5.828000,3320.646
5.829000,3320.646
5.830000,3320.646
5.831000,3320.646
5.832000,3320.646
5.833000,3321.791
5.834000,3321.791
5.835000,3321.791
5.836000,3321.791
5.837000,3321.791
5.838000,3322.077
5.839000,3322.077
5.840000,3322.077
5.841000,3322.077
5.842000,3322.077
5.843000,3323.841
5.844000,3323.841
5.845000,3323.841
5.846000,3323.841
5.847000,3323.841
5.848000,3323.698
5.849000,3323.698
5.850000,3323.698
5.851000,3323.698
5.852000,3323.698
5.853000,3326.845
5.854000,3326.845
5.855000,3326.845
5.856000,3326.845
5.857000,3317.261
5.858000,3317.261
5.859000,3317.261
5.860000,3317.261
5.861000,3317.261
5.862000,3321.362
5.863000,3321.362
5.864000,3321.362
5.865000,3321.362
5.866000,3321.362
5.867000,3321.791
5.868000,3321.791
5.869000,3321.791
5.870000,3321.791
5.871000,3321.791
5.872000,3321.934
5.873000,3321.934
5.874000,3321.934
5.875000,3321.934
5.876000,3321.934
5.877000,3322.935
5.878000,3322.935
5.879000,3322.935
5.880000,3322.935
5.881000,3322.935
5.882000,3322.029
5.883000,3322.029
5.884000,3322.029
5.885000,3322.029
5.886000,3322.029
5.887000,3323.698
5.888000,3323.698
5.889000,3323.698
5.890000,3323.698
5.891000,3321.075
5.892000,3321.075
5.893000,3321.075
5.894000,3321.075
5.895000,3321.075
5.896000,3318.596
5.897000,3318.596
5.898000,3318.596
5.899000,3318.596
5.900000,3318.596
5.901000,3320.360
5.902000,3320.360
5.903000,3320.360
5.904000,3320.360
5.905000,3320.360
5.906000,3317.738
5.907000,3317.738
5.908000,3317.738
5.909000,3317.738
5.910000,3317.738
5.911000,3314.924
5.912000,3314.924
5.913000,3314.924
5.914000,3314.924
5.915000,3314.924
5.916000,3317.261
5.917000,3317.261
5.918000,3317.261
5.919000,3317.261
5.920000,12.922
5.921000,3323.984
5.922000,3323.984
5.923000,3323.984
5.924000,3323.984
5.925000,3323.984
5.926000,3323.555
5.927000,3323.555
5.928000,3323.555
5.929000,3323.555
5.930000,3323.555
5.931000,3322.268
5.932000,3322.268
5.933000,3322.268
5.934000,3322.268
5.935000,3322.268
5.936000,3322.315
5.937000,3322.315
5.938000,3322.315
5.939000,3322.315
5.940000,3322.315
5.941000,3319.931
5.942000,3319.931
5.943000,3319.931
5.944000,3319.931
5.945000,3319.931
5.946000,3314.829
5.947000,3314.829
5.948000,3314.829
5.949000,3314.829
5.950000,3314.829
5.951000,3315.592
5.952000,3315.592
5.953000,3315.592
5.954000,3315.592
5.955000,3322.840
5.956000,3322.840
5.957000,3322.840
5.958000,3322.840
5.959000,3322.840
5.960000,3324.842
5.961000,3324.842
5.962000,3324.842
5.963000,3324.842
5.964000,3324.842
5.965000,3328.133
5.966000,3328.133
5.967000,3328.133
5.968000,3328.133
5.969000,3328.133
5.970000,3328.133
5.971000,3328.133
5.972000,3328.133
5.973000,3328.133
5.974000,3328.133
5.975000,3325.272
5.976000,3325.272
5.977000,3325.272
5.978000,3325.272
5.979000,3325.272
5.980000,3322.649
5.981000,3322.649
5.982000,3322.649
5.983000,3322.649
5.984000,12.970
5.985000,3320.599
5.986000,3320.599
5.987000,3320.599
5.988000,3320.599
5.989000,3320.599
5.990000,3323.364
5.991000,3323.364
5.992000,3323.364
5.993000,3323.364
5.994000,3323.364
5.995000,3321.838
5.996000,3321.838
5.997000,3321.838
5.998000,3321.838
5.999000,3321.838
6.000000,3322.554
6.001000,3322.554
6.002000,3322.554
6.003000,3322.554
6.004000,3322.554
6.005000,3328.037
6.006000,3328.037
6.007000,3328.037
6.008000,3328.037
6.009000,3328.037
6.010000,3328.228
6.011000,3328.228
6.012000,3328.228
6.013000,3328.228
6.014000,3328.228
6.015000,3326.130
6.016000,3326.130
6.017000,3326.130
6.018000,3326.130
6.019000,3316.689
6.020000,3316.689
6.021000,3316.689
6.022000,3316.689
6.023000,3316.689
6.024000,3316.927
6.025000,3316.927
6.026000,3316.927
6.027000,3316.927
6.028000,3316.927
6.029000,3317.213
6.030000,3317.213
6.031000,3317.213
6.032000,3317.213
6.033000,3317.213
6.034000,3319.645
6.035000,3319.645
6.036000,3319.645
6.037000,3319.645
6.038000,3319.645
6.039000,3322.983
6.040000,3322.983
6.041000,3322.983
6.042000,3322.983
6.043000,3322.983
6.044000,3321.934
6.045000,3321.934
6.046000,3321.934
6.047000,3321.934
6.048000,12.970
6.049000,3322.697
6.050000,3322.697
6.051000,3322.697
6.052000,3322.697
6.053000,3322.697
6.054000,3317.642
6.055000,3317.642
6.056000,3317.642
6.057000,3317.642
6.058000,3317.642
6.059000,3316.355
6.060000,3316.355
6.061000,3316.355
6.062000,3316.355
6.063000,3316.355
6.064000,3317.928
6.065000,3317.928
6.066000,3317.928
6.067000,3317.928
6.068000,3317.928
6.069000,3320.265
6.070000,3320.265
6.071000,3320.265
6.072000,3320.265
6.073000,3320.265
6.074000,3319.168
6.075000,3319.168
6.076000,3319.168
6.077000,3319.168
6.078000,3319.168
6.079000,3321.218
6.080000,3321.218
6.081000,3321.218
6.082000,3321.218
6.083000,3324.080
6.084000,3324.080
6.085000,3324.080
6.086000,3324.080
6.087000,3324.080
6.088000,3322.744
6.089000,3322.744
6.090000,3322.744
6.091000,3322.744
6.092000,3322.744
6.093000,3322.506
6.094000,3322.506
6.095000,3322.506
6.096000,3322.506
6.097000,3322.506
6.098000,3320.503
6.099000,3320.503
6.100000,3320.503
6.101000,3320.503
6.102000,3320.503
6.103000,3320.646
6.104000,3320.646
6.105000,3320.646
6.106000,3320.646
6.107000,3320.646
6.108000,3320.503
6.109000,3320.503
6.110000,3320.503
6.111000,3320.503
6.112000,0.000
6.113000,3322.983
6.114000,3322.983
6.115000,3322.983
6.116000,3322.983
6.117000,3322.983
6.118000,3327.656
6.119000,3327.656
6.120000,3327.656
6.121000,3327.656
6.122000,3327.656
6.123000,3325.987
6.124000,3325.987
6.125000,3325.987
6.126000,3325.987
6.127000,3325.987
6.128000,3325.462
6.129000,3325.462
6.130000,3325.462
6.131000,3325.462
6.132000,3325.462
6.133000,3322.840
6.134000,3322.840
6.135000,3322.840
6.136000,3322.840
6.137000,3322.840
6.138000,3320.599
6.139000,3320.599
6.140000,3320.599
6.141000,3320.599
6.142000,3320.599
6.143000,3319.263
6.144000,3319.263
6.145000,3319.263
6.146000,3319.263
6.147000,3319.836
6.148000,3319.836
6.149000,3319.836
6.150000,3319.836
6.151000,3319.836
6.152000,3320.360
6.153000,3320.360
6.154000,3320.360
6.155000,3320.360
6.156000,3320.360
6.157000,3322.554
6.158000,3322.554
6.159000,3322.554
6.160000,3322.554
6.161000,3322.554
6.162000,3324.080
6.163000,3324.080
6.164000,3324.080
6.165000,3324.080
6.166000,3324.080
6.167000,3322.220
6.168000,3322.220
6.169000,3322.220
6.170000,3322.220
6.171000,3322.220
6.172000,3326.845
6.173000,3326.845
6.174000,3326.845
6.175000,3326.845
6.176000,12.970
6.177000,3316.593
6.178000,3316.593
6.179000,3316.593
6.180000,3316.593
6.181000,3316.593
6.182000,3319.216
6.183000,3319.216
6.184000,3319.216
6.185000,3319.216
6.186000,3319.216
6.187000,3319.931
6.188000,3319.931
6.189000,3319.931
6.190000,3319.931
6.191000,3319.931
6.192000,3321.314
6.193000,3321.314
6.194000,3321.314
6.195000,3321.314
6.196000,3321.314
6.197000,3323.126
6.198000,3323.126
6.199000,3323.126
6.200000,3323.126
6.201000,3323.126
6.202000,3322.077
6.203000,3322.077
6.204000,3322.077
6.205000,3322.077
6.206000,3322.077
6.207000,3324.604
6.208000,3324.604
6.209000,3324.604
6.210000,3324.604
6.211000,3323.364
6.212000,3323.364
6.213000,3323.364
6.214000,3323.364
6.215000,3323.364
6.216000,3321.457
6.217000,3321.457
6.218000,3321.457
6.219000,3321.457
6.220000,3321.457
6.221000,3321.505
6.222000,3321.505
6.223000,3321.505
6.224000,3321.505
6.225000,3321.505
6.226000,3317.404
6.227000,3317.404
6.228000,3317.404
6.229000,3317.404
6.230000,3317.404
6.231000,3316.212
6.232000,3316.212
6.233000,3316.212
6.234000,3316.212
6.235000,3316.212
6.236000,3316.689
6.237000,3316.689
6.238000,3316.689
6.239000,3316.689
6.240000,12.922
6.241000,3323.936
6.242000,3323.936
6.243000,3323.936
6.244000,3323.936
6.245000,3323.936
6.246000,3322.029
6.247000,3322.029
6.248000,3322.029
6.249000,3322.029
6.250000,3322.029
6.251000,3322.840
6.252000,3322.840
6.253000,3322.840
6.254000,3322.840
6.255000,3322.840
6.256000,3319.263
6.257000,3319.263
6.258000,3319.263
6.259000,3319.263
6.260000,3319.263
6.261000,3320.599
6.262000,3320.599
6.263000,3320.599
6.264000,3320.599
6.265000,3320.599
6.266000,3317.499
6.267000,3317.499
6.268000,3317.499
6.269000,3317.499
6.270000,3317.499
6.271000,3313.398
6.272000,3313.398
6.273000,3313.398
6.274000,3313.398
6.275000,3321.314
6.276000,3321.314
6.277000,3321.314
6.278000,3321.314
6.279000,3321.314
6.280000,3323.841
6.281000,3323.841
6.282000,3323.841
6.283000,3323.841
6.284000,3323.841
6.285000,3327.274
6.286000,3327.274
6.287000,3327.274
6.288000,3327.274
6.289000,3327.274
6.290000,3326.845
6.291000,3326.845
6.292000,3326.845
6.293000,3326.845
6.294000,3326.845
6.295000,3325.272
6.296000,3325.272
6.297000,3325.272
6.298000,3325.272
6.299000,3325.272
6.300000,3323.317
6.301000,3323.317
6.302000,3323.317
6.303000,3323.317
6.304000,12.970
6.305000,3318.596
6.306000,3318.596
6.307000,3318.596
6.308000,3318.596
6.309000,3318.596
6.310000,3319.693
6.311000,3319.693
6.312000,3319.693
6.313000,3319.693
6.314000,3319.693
6.315000,3323.460
6.316000,3323.460
6.317000,3323.460
6.318000,3323.460
6.319000,3323.460
6.320000,3322.554
6.321000,3322.554
6.322000,3322.554
6.323000,3322.554
6.324000,3322.554
6.325000,3327.513
6.326000,3327.513
6.327000,3327.513
6.328000,3327.513
6.329000,3327.513
6.330000,3327.417
6.331000,3327.417
6.332000,3327.417
6.333000,3327.417
6.334000,3327.417
6.335000,3324.556
6.336000,3324.556
6.337000,3324.556
6.338000,3324.556
6.339000,3320.551
6.340000,3320.551
6.341000,3320.551
6.342000,3320.551
6.343000,3320.551
6.344000,3313.208
6.345000,3313.208
6.346000,3313.208
6.347000,3313.208
6.348000,3313.208
6.349000,3315.210
6.350000,3315.210
6.351000,3315.210
6.352000,3315.210
6.353000,3315.210
6.354000,3318.977
6.355000,3318.977
6.356000,3318.977
6.357000,3318.977
6.358000,3318.977
6.359000,3318.787
6.360000,3318.787
6.361000,3318.787
6.362000,3318.787
6.363000,3318.787
6.364000,3317.833
6.365000,3317.833
6.366000,3317.833
6.367000,3317.833
6.368000,0.000
6.369000,3318.453
6.370000,3318.453
6.371000,3318.453
6.372000,3318.453
6.373000,3318.453
6.374000,3316.545
6.375000,3316.545
6.376000,3316.545
6.377000,3316.545
6.378000,3316.545
6.379000,3315.973
6.380000,3315.973
6.381000,3315.973
6.382000,3315.973
6.383000,3315.973
6.384000,3318.214
6.385000,3318.214
6.386000,3318.214
6.387000,3318.214
6.388000,3318.214
6.389000,3318.596
6.390000,3318.596
6.391000,3318.596
6.392000,3318.596
6.393000,3318.596
6.394000,3318.119
6.395000,3318.119
6.396000,3318.119
6.397000,3318.119
6.398000,3318.119
6.399000,3320.408
6.400000,3320.408
6.401000,3320.408
6.402000,3320.408
6.403000,3325.653
6.404000,3325.653
6.405000,3325.653
6.406000,3325.653
6.407000,3325.653
6.408000,3324.318
6.409000,3324.318
6.410000,3324.318
6.411000,3324.318
6.412000,3324.318
6.413000,3323.221
6.414000,3323.221
6.415000,3323.221
6.416000,3323.221
6.417000,3323.221
6.418000,3322.411
6.419000,3322.411
6.420000,3322.411
6.421000,3322.411
6.422000,3322.411
6.423000,3318.739
6.424000,3318.739
6.425000,3318.739
6.426000,3318.739
6.427000,3318.739
6.428000,3318.644
6.429000,3318.644
6.430000,3318.644
6.431000,3318.644
6.432000,12.922
6.433000,3325.033
6.434000,3325.033
6.435000,3325.033
6.436000,3325.033
6.437000,3325.033
6.438000,3325.081
6.439000,3325.081
6.440000,3325.081
6.441000,3325.081
6.442000,3325.081
6.443000,3322.601
6.444000,3322.601
6.445000,3322.601
6.446000,3322.601
6.447000,3322.601
6.448000,3320.837
6.449000,3320.837
6.450000,3320.837
6.451000,3320.837
6.452000,3320.837
6.453000,3319.883
6.454000,3319.883
6.455000,3319.883
6.456000,3319.883
6.457000,3319.883
6.458000,3320.551
6.459000,3320.551
6.460000,3320.551
6.461000,3320.551
6.462000,3320.551
6.463000,3313.732
6.464000,3313.732
6.465000,3313.732
6.466000,3313.732
6.467000,3322.983
6.468000,3322.983
6.469000,3322.983
6.470000,3322.983
6.471000,3322.983
6.472000,3325.510
6.473000,3325.510
6.474000,3325.510
6.475000,3325.510
6.476000,3325.510
6.477000,3324.413
6.478000,3324.413
6.479000,3324.413
6.480000,3324.413
6.481000,3324.413
6.482000,3326.988
6.483000,3326.988
6.484000,3326.988
6.485000,3326.988
6.486000,3326.988
6.487000,3321.791
6.488000,3321.791
6.489000,3321.791
6.490000,3321.791
6.491000,3321.791
6.492000,3320.837
6.493000,3320.837
6.494000,3320.837
6.495000,3320.837
6.496000,0.000
6.497000,3315.210
6.498000,3315.210
6.499000,3315.210
6.500000,3315.210
6.501000,3315.210
6.502000,3317.976
6.503000,3317.976
6.504000,3317.976
6.505000,3317.976
6.506000,3317.976
6.507000,3322.172
6.508000,3322.172
6.509000,3322.172
6.510000,3322.172
6.511000,3322.172
6.512000,3322.887
6.513000,3322.887
6.514000,3322.887
6.515000,3322.887
6.516000,3322.887
6.517000,3319.931
6.518000,3319.931
6.519000,3319.931
6.520000,3319.931
6.521000,3319.931
6.522000,3324.080
6.523000,3324.080
6.524000,3324.080
6.525000,3324.080
6.526000,3324.080
6.527000,3326.797
6.528000,3326.797
6.529000,3326.797
6.530000,3326.797
6.531000,3320.360
6.532000,3320.360
6.533000,3320.360
6.534000,3320.360
6.535000,3320.360
6.536000,3320.503
6.537000,3320.503
6.538000,3320.503
6.539000,3320.503
6.540000,3320.503
6.541000,3315.115
6.542000,3315.115
6.543000,3315.115
6.544000,3315.115
6.545000,3315.115
6.546000,3315.449
6.547000,3315.449
6.548000,3315.449
6.549000,3315.449
6.550000,3315.449
6.551000,3316.879
6.552000,3316.879
6.553000,3316.879
6.554000,3316.879
6.555000,3316.879
6.556000,3322.220
6.557000,3322.220
6.558000,3322.220
6.559000,3322.220
6.560000,0.000
6.561000,3325.748
6.562000,3325.748
6.563000,3325.748
6.564000,3325.748
6.565000,3325.748
6.566000,3322.506
6.567000,3322.506
6.568000,3322.506
6.569000,3322.506
6.570000,3322.506
6.571000,3320.742
6.572000,3320.742
6.573000,3320.742
6.574000,3320.742
6.575000,3320.742
6.576000,3317.308
6.577000,3317.308
6.578000,3317.308
6.579000,3317.308
6.580000,3317.308
6.581000,3314.924
6.582000,3314.924
6.583000,3314.924
6.584000,3314.924
6.585000,3314.924
6.586000,3316.355
6.587000,3316.355
6.588000,3316.355
6.589000,3316.355
6.590000,3316.355
6.591000,3318.930
6.592000,3318.930
6.593000,3318.930
6.594000,3318.930
6.595000,3326.178
6.596000,3326.178
6.597000,3326.178
6.598000,3326.178
6.599000,3326.178
6.600000,3328.609
6.601000,3328.609
6.602000,3328.609
6.603000,3328.609
6.604000,3328.609
6.605000,3328.085
6.606000,3328.085
6.607000,3328.085
6.608000,3328.085
6.609000,3328.085
6.610000,3324.747
6.611000,3324.747
6.612000,3324.747
6.613000,3324.747
6.614000,3324.747
6.615000,3324.556
6.616000,3324.556
6.617000,3324.556
6.618000,3324.556
6.619000,3324.556
6.620000,3315.020
6.621000,3315.020
6.622000,3315.020
6.623000,3315.020
6.624000,0.000
6.625000,3319.120
6.626000,3319.120
6.627000,3319.120
6.628000,3319.120
6.629000,3319.120
6.630000,3323.936
6.631000,3323.936
6.632000,3323.936
6.633000,3323.936
6.634000,3323.936
6.635000,3323.317
6.636000,3323.317
6.637000,3323.317
6.638000,3323.317
6.639000,3323.317
6.640000,3328.848
6.641000,3328.848
6.642000,3328.848
6.643000,3328.848
6.644000,3328.848
6.645000,3327.036
6.646000,3327.036
6.647000,3327.036
6.648000,3327.036
6.649000,3327.036
6.650000,3324.938
6.651000,3324.938
6.652000,3324.938
6.653000,3324.938
6.654000,3324.938
6.655000,3323.841
6.656000,3323.841
6.657000,3323.841
6.658000,3323.841
6.659000,3315.306
6.660000,3315.306
6.661000,3315.306
6.662000,3315.306
6.663000,3315.306
6.664000,3314.543
6.665000,3314.543
6.666000,3314.543
6.667000,3314.543
6.668000,3314.543
6.669000,3317.022
6.670000,3317.022
6.671000,3317.022
6.672000,3317.022
6.673000,3317.022
6.674000,3318.262
6.675000,3318.262
6.676000,3318.262
6.677000,3318.262
6.678000,3318.262
6.679000,3319.597
6.680000,3319.597
6.681000,3319.597
6.682000,3319.597
6.683000,3319.597
6.684000,3320.599
6.685000,3320.599
6.686000,3320.599
6.687000,3320.599
6.688000,12.970
6.689000,3320.169
6.690000,3320.169
6.691000,3320.169
6.692000,3320.169
6.693000,3320.169
6.694000,3315.163
6.695000,3315.163
6.696000,3315.163
6.697000,3315.163
6.698000,3315.163
