t_s,ch1_uv
0.000000,4.673
0.001000,4.625
0.002000,4.625
0.003000,4.578
0.004000,4.578
0.005000,4.578
0.006000,4.530
0.007000,4.530
0.008000,4.530
0.009000,4.530
0.010000,4.578
0.011000,4.578
0.012000,4.578
0.013000,4.625
0.014000,4.673
0.015000,4.673
0.016000,4.721
0.017000,4.768
0.018000,4.816
0.019000,4.911
0.020000,4.959
0.021000,5.007
0.022000,5.102
0.023000,5.150
0.024000,5.245
0.025000,5.341
0.026000,5.436
0.027000,5.484
0.028000,5.579
0.029000,5.674
0.030000,5.817
0.031000,5.913
0.032000,7.629
0.033000,7.772
0.034000,7.915
0.035000,8.059
0.036000,8.202
0.037000,8.345
0.038000,8.535
0.039000,8.678
0.040000,8.869
0.041000,9.012
0.042000,9.203
0.043000,9.394
0.044000,9.584
0.045000,9.775
0.046000,9.966
0.047000,10.157
0.048000,10.347
0.049000,10.538
0.050000,10.729
0.051000,10.920
0.052000,11.110
0.053000,11.301
0.054000,11.539
0.055000,11.730
0.056000,11.921
0.057000,12.112
0.058000,12.302
0.059000,12.493
0.060000,12.684
0.061000,12.875
0.062000,13.018
0.063000,13.208
0.064000,11.873
0.065000,11.778
0.066000,11.683
0.067000,11.587
0.068000,11.492
0.069000,11.396
0.070000,11.301
0.071000,11.206
0.072000,11.158
0.073000,11.063
0.074000,10.967
0.075000,10.872
0.076000,10.824
0.077000,10.729
0.078000,10.633
0.079000,10.586
0.080000,10.538
0.081000,10.443
0.082000,10.395
0.083000,10.347
0.084000,10.252
0.085000,10.204
0.086000,10.157
0.087000,10.109
0.088000,10.061
0.089000,10.014
0.090000,9.966
0.091000,9.918
0.092000,9.918
0.093000,9.871
0.094000,9.823
0.095000,9.823
0.096000,13.208
0.097000,13.256
0.098000,13.304
0.099000,13.351
0.100000,13.399
0.101000,13.447
0.102000,13.494
0.103000,13.542
0.104000,13.590
0.105000,13.638
0.106000,13.685
0.107000,13.733
0.108000,13.781
0.109000,13.781
0.110000,13.828
0.111000,13.876
0.112000,13.924
0.113000,13.971
0.114000,13.971
0.115000,14.019
0.116000,14.067
0.117000,14.114
0.118000,14.114
0.119000,14.162
0.120000,14.210
0.121000,14.210
0.122000,14.257
0.123000,14.305
0.124000,14.305
0.125000,14.353
0.126000,14.353
0.127000,14.400
0.128000,15.640
0.129000,15.640
0.130000,15.688
0.131000,15.688
0.132000,15.688
0.133000,15.736
0.134000,15.736
0.135000,15.736
0.136000,15.783
0.137000,15.783
0.138000,15.783
0.139000,15.831
0.140000,15.831
0.141000,15.831
0.142000,15.831
0.143000,15.879
0.144000,15.879
0.145000,15.879
0.146000,15.926
0.147000,15.926
0.148000,15.926
0.149000,15.974
0.150000,15.974
0.151000,16.022
0.152000,16.022
0.153000,16.022
0.154000,16.069
0.155000,16.069
0.156000,16.069
0.157000,16.117
0.158000,16.117
0.159000,16.117
0.160000,17.309
0.161000,17.357
0.162000,17.357
0.163000,17.357
0.164000,17.357
0.165000,17.357
0.166000,17.405
0.167000,17.405
0.168000,17.405
0.169000,17.405
0.170000,17.405
0.171000,17.405
0.172000,17.452
0.173000,17.452
0.174000,17.452
0.175000,17.452
0.176000,17.452
0.177000,17.452
0.178000,17.500
0.179000,17.500
0.180000,17.500
0.181000,17.500
0.182000,17.500
0.183000,17.500
0.184000,17.548
0.185000,17.548
0.186000,17.548
0.187000,17.548
0.188000,17.548
0.189000,17.548
0.190000,17.595
0.191000,17.595
0.192000,17.977
0.193000,17.977
0.194000,17.977
0.195000,17.977
0.196000,17.977
0.197000,17.977
0.198000,17.977
0.199000,17.977
0.200000,17.977
0.201000,17.977
0.202000,18.024
0.203000,18.024
0.204000,18.024
0.205000,18.024
0.206000,18.024
0.207000,18.024
0.208000,18.024
0.209000,18.024
0.210000,18.024
0.211000,18.024
0.212000,18.024
0.213000,18.024
0.214000,18.024
0.215000,18.024
0.216000,18.024
0.217000,18.024
0.218000,18.024
0.219000,18.024
0.220000,18.024
0.221000,18.024
0.222000,18.024
0.223000,18.024
0.224000,17.929
0.225000,17.929
0.226000,17.929
0.227000,17.881
0.228000,17.881
0.229000,17.881
0.230000,17.881
0.231000,17.881
0.232000,17.881
0.233000,17.881
0.234000,17.881
0.235000,17.881
0.236000,17.881
0.237000,17.881
0.238000,17.834
0.239000,17.834
0.240000,17.834
0.241000,17.834
0.242000,17.834
0.243000,17.834
0.244000,17.834
0.245000,17.834
0.246000,17.834
0.247000,17.786
0.248000,17.786
0.249000,17.786
0.250000,17.786
0.251000,17.786
0.252000,17.786
0.253000,17.786
0.254000,17.786
0.255000,17.738
0.256000,17.118
0.257000,17.118
0.258000,17.118
0.259000,17.118
0.260000,17.118
0.261000,17.071
0.262000,17.071
0.263000,17.071
0.264000,17.071
0.265000,17.071
0.266000,17.071
0.267000,17.023
0.268000,17.023
0.269000,17.023
0.270000,17.023
0.271000,17.023
0.272000,17.023
0.273000,16.975
0.274000,16.975
0.275000,16.975
0.276000,16.975
0.277000,16.975
0.278000,16.928
0.279000,16.928
0.280000,16.928
0.281000,16.928
0.282000,16.928
0.283000,16.880
0.284000,16.880
0.285000,16.880
0.286000,16.880
0.287000,16.880
0.288000,15.879
0.289000,15.879
0.290000,15.831
0.291000,15.831
0.292000,15.831
0.293000,15.783
0.294000,15.783
0.295000,15.783
0.296000,15.783
0.297000,15.736
0.298000,15.736
0.299000,15.736
0.300000,15.688
0.301000,15.688
0.302000,15.688
0.303000,15.640
0.304000,15.640
0.305000,15.640
0.306000,15.640
0.307000,15.593
0.308000,15.593
0.309000,15.593
0.310000,15.545
0.311000,15.545
0.312000,15.545
0.313000,15.497
0.314000,15.497
0.315000,15.497
0.316000,15.497
0.317000,15.450
0.318000,15.450
0.319000,15.450
0.320000,14.162
0.321000,14.162
0.322000,14.114
0.323000,14.114
0.324000,14.114
0.325000,14.067
0.326000,14.067
0.327000,14.019
0.328000,14.019
0.329000,14.019
0.330000,13.971
0.331000,13.971
0.332000,13.971
0.333000,13.924
0.334000,13.924
0.335000,13.924
0.336000,13.876
0.337000,13.876
0.338000,13.876
0.339000,13.828
0.340000,13.828
0.341000,13.828
0.342000,13.781
0.343000,13.781
0.344000,13.733
0.345000,13.733
0.346000,13.733
0.347000,13.685
0.348000,13.685
0.349000,13.685
0.350000,13.638
0.351000,13.638
0.352000,12.112
0.353000,12.112
0.354000,12.064
0.355000,12.064
0.356000,12.064
0.357000,12.016
0.358000,12.016
0.359000,12.016
0.360000,11.969
0.361000,11.969
0.362000,11.969
0.363000,11.921
0.364000,11.921
0.365000,11.873
0.366000,11.873
0.367000,11.873
0.368000,11.826
0.369000,11.826
0.370000,11.826
0.371000,11.778
0.372000,11.778
0.373000,11.778
0.374000,11.730
0.375000,11.730
0.376000,11.683
0.377000,11.683
0.378000,11.683
0.379000,11.635
0.380000,11.635
0.381000,11.635
0.382000,11.587
0.383000,11.587
0.384000,10.014
0.385000,9.966
0.386000,9.966
0.387000,9.918
0.388000,9.918
0.389000,9.918
0.390000,9.871
0.391000,9.871
0.392000,9.823
0.393000,9.823
0.394000,9.823
0.395000,9.775
0.396000,9.775
0.397000,9.727
0.398000,9.727
0.399000,9.680
0.400000,9.680
0.401000,9.680
0.402000,9.632
0.403000,9.632
0.404000,9.584
0.405000,9.584
0.406000,9.584
0.407000,9.537
0.408000,9.537
0.409000,9.489
0.410000,9.489
0.411000,9.441
0.412000,9.441
0.413000,9.441
0.414000,9.394
0.415000,9.394
0.416000,7.677
0.417000,7.677
0.418000,7.677
0.419000,7.629
0.420000,7.629
0.421000,7.582
0.422000,7.582
0.423000,7.582
0.424000,7.534
0.425000,7.534
0.426000,7.486
0.427000,7.486
0.428000,7.486
0.429000,7.439
0.430000,7.439
0.431000,7.391
0.432000,7.391
0.433000,7.391
0.434000,7.343
0.435000,7.343
0.436000,7.296
0.437000,7.296
0.438000,7.296
0.439000,7.248
0.440000,7.248
0.441000,7.200
0.442000,7.200
0.443000,7.200
0.444000,7.153
0.445000,7.153
0.446000,7.105
0.447000,7.105
0.448000,5.531
0.449000,5.484
0.450000,5.484
0.451000,5.436
0.452000,5.436
0.453000,5.436
0.454000,5.388
0.455000,5.388
0.456000,5.341
0.457000,5.341
0.458000,5.341
0.459000,5.293
0.460000,5.293
0.461000,5.245
0.462000,5.245
0.463000,5.245
0.464000,5.198
0.465000,5.198
0.466000,5.198
0.467000,5.150
0.468000,5.150
0.469000,5.102
0.470000,5.102
0.471000,5.102
0.472000,5.054
0.473000,5.054
0.474000,5.007
0.475000,5.007
0.476000,5.007
0.477000,4.959
0.478000,4.959
0.479000,4.911
0.480000,3.433
0.481000,3.386
0.482000,3.386
0.483000,3.386
0.484000,3.338
0.485000,3.338
0.486000,3.290
0.487000,3.290
0.488000,3.290
0.489000,3.242
0.490000,3.242
0.491000,3.242
0.492000,3.195
0.493000,3.195
0.494000,3.195
0.495000,3.147
0.496000,3.147
0.497000,3.147
0.498000,3.099
0.499000,3.099
0.500000,3.099
0.501000,3.052
0.502000,3.052
0.503000,3.004
0.504000,3.004
0.505000,3.004
0.506000,2.956
0.507000,2.956
0.508000,2.956
0.509000,2.909
0.510000,2.909
0.511000,2.909
0.512000,1.478
0.513000,1.478
0.514000,1.431
0.515000,1.431
0.516000,1.431
0.517000,1.383
0.518000,1.383
0.519000,1.383
0.520000,1.335
0.521000,1.335
0.522000,1.335
0.523000,1.287
0.524000,1.287
0.525000,1.287
0.526000,1.240
0.527000,1.240
0.528000,1.240
0.529000,1.192
0.530000,1.192
0.531000,1.192
0.532000,1.144
0.533000,1.144
0.534000,1.144
0.535000,1.097
0.536000,1.097
0.537000,1.097
0.538000,1.097
0.539000,1.049
0.540000,1.049
0.541000,1.049
0.542000,1.001
0.543000,1.001
0.544000,-0.191
0.545000,-0.238
0.546000,-0.238
0.547000,-0.238
0.548000,-0.238
0.549000,-0.286
0.550000,-0.286
0.551000,-0.286
0.552000,-0.286
0.553000,-0.334
0.554000,-0.334
0.555000,-0.334
0.556000,-0.381
0.557000,-0.381
0.558000,-0.381
0.559000,-0.381
0.560000,-0.429
0.561000,-0.429
0.562000,-0.429
0.563000,-0.429
0.564000,-0.477
0.565000,-0.477
0.566000,-0.477
0.567000,-0.477
0.568000,-0.525
0.569000,-0.525
0.570000,-0.525
0.571000,-0.572
0.572000,-0.572
0.573000,-0.572
0.574000,-0.572
0.575000,-0.620
0.576000,-1.669
0.577000,-1.669
0.578000,-1.669
0.579000,-1.717
0.580000,-1.717
0.581000,-1.717
0.582000,-1.717
0.583000,-1.764
0.584000,-1.764
0.585000,-1.764
0.586000,-1.764
0.587000,-1.812
0.588000,-1.812
0.589000,-1.812
0.590000,-1.812
0.591000,-1.860
0.592000,-1.860
0.593000,-1.860
0.594000,-1.860
0.595000,-1.907
0.596000,-1.907
0.597000,-1.907
0.598000,-1.907
0.599000,-1.955
0.600000,-1.955
0.601000,-1.955
0.602000,-1.955
0.603000,-2.003
0.604000,-2.003
0.605000,-2.003
0.606000,-2.003
0.607000,-2.003
0.608000,-2.861
0.609000,-2.861
0.610000,-2.909
0.611000,-2.909
0.612000,-2.909
0.613000,-2.909
0.614000,-2.909
0.615000,-2.956
0.616000,-2.956
0.617000,-2.956
0.618000,-2.956
0.619000,-2.956
0.620000,-2.956
0.621000,-3.004
0.622000,-3.004
0.623000,-3.004
0.624000,-3.004
0.625000,-3.004
0.626000,-3.052
0.627000,-3.052
0.628000,-3.052
0.629000,-3.052
0.630000,-3.052
0.631000,-3.052
0.632000,-3.099
0.633000,-3.099
0.634000,-3.099
0.635000,-3.099
0.636000,-3.099
0.637000,-3.099
0.638000,-3.147
0.639000,-3.147
0.640000,-3.767
0.641000,-3.815
0.642000,-3.815
0.643000,-3.815
0.644000,-3.815
0.645000,-3.815
0.646000,-3.815
0.647000,-3.815
0.648000,-3.862
0.649000,-3.862
0.650000,-3.862
0.651000,-3.862
0.652000,-3.862
0.653000,-3.862
0.654000,-3.862
0.655000,-3.862
0.656000,-3.910
0.657000,-3.910
0.658000,-3.910
0.659000,-3.910
0.660000,-3.910
0.661000,-3.910
0.662000,-3.910
0.663000,-3.958
0.664000,-3.958
0.665000,-3.958
0.666000,-3.958
0.667000,-3.958
0.668000,-3.958
0.669000,-3.958
0.670000,-3.958
0.671000,-4.005
0.672000,-4.435
0.673000,-4.435
0.674000,-4.435
0.675000,-4.435
0.676000,-4.435
0.677000,-4.435
0.678000,-4.435
0.679000,-4.435
0.680000,-4.482
0.681000,-4.482
0.682000,-4.482
0.683000,-4.482
0.684000,-4.482
0.685000,-4.482
0.686000,-4.482
0.687000,-4.482
0.688000,-4.482
0.689000,-4.482
0.690000,-4.482
0.691000,-4.530
0.692000,-4.530
0.693000,-4.530
0.694000,-4.530
0.695000,-4.530
0.696000,-4.530
0.697000,-4.530
0.698000,-4.530
0.699000,-4.530
0.700000,-4.530
0.701000,-4.530
0.702000,-4.530
0.703000,-4.578
0.704000,-4.816
0.705000,-4.816
0.706000,-4.816
0.707000,-4.816
0.708000,-4.816
0.709000,-4.816
0.710000,-4.816
0.711000,-4.816
0.712000,-4.816
0.713000,-4.816
0.714000,-4.816
0.715000,-4.816
0.716000,-4.816
0.717000,-4.864
0.718000,-4.864
0.719000,-4.864
0.720000,-4.864
0.721000,-4.864
0.722000,-4.864
0.723000,-4.864
0.724000,-4.864
0.725000,-4.864
0.726000,-4.864
0.727000,-4.864
0.728000,-4.864
0.729000,-4.864
0.730000,-4.864
0.731000,-4.864
0.732000,-4.864
0.733000,-4.864
0.734000,-4.864
0.735000,-4.864
0.736000,-4.959
0.737000,-4.959
0.738000,-4.959
0.739000,-4.959
0.740000,-4.959
0.741000,-4.959
0.742000,-4.959
0.743000,-4.959
0.744000,-4.959
0.745000,-4.959
0.746000,-4.959
0.747000,-4.959
0.748000,-4.959
0.749000,-4.959
0.750000,-4.959
0.751000,-4.959
0.752000,-4.959
0.753000,-4.959
0.754000,-4.959
0.755000,-4.959
0.756000,-4.959
0.757000,-4.959
0.758000,-4.959
0.759000,-4.959
0.760000,-4.959
0.761000,-4.959
0.762000,-4.959
0.763000,-4.959
0.764000,-4.959
0.765000,-4.959
0.766000,-4.959
0.767000,-4.959
0.768000,-4.864
0.769000,-4.864
0.770000,-4.864
0.771000,-4.864
0.772000,-4.864
0.773000,-4.864
0.774000,-4.864
0.775000,-4.864
0.776000,-4.864
0.777000,-4.864
0.778000,-4.864
0.779000,-4.864
0.780000,-4.864
0.781000,-4.864
0.782000,-4.864
0.783000,-4.864
0.784000,-4.864
0.785000,-4.864
0.786000,-4.864
0.787000,-4.864
0.788000,-4.864
0.789000,-4.864
0.790000,-4.864
0.791000,-4.864
0.792000,-4.864
0.793000,-4.816
0.794000,-4.816
0.795000,-4.816
0.796000,-4.816
0.797000,-4.816
0.798000,-4.816
0.799000,-4.816
0.800000,-4.673
0.801000,-4.673
0.802000,-4.673
0.803000,-4.625
0.804000,-4.625
0.805000,-4.625
0.806000,-4.625
0.807000,-4.625
0.808000,-4.625
0.809000,-4.625
0.810000,-4.625
0.811000,-4.625
0.812000,-4.625
0.813000,-4.625
0.814000,-4.625
0.815000,-4.625
0.816000,-4.625
0.817000,-4.625
0.818000,-4.625
0.819000,-4.625
0.820000,-4.625
0.821000,-4.625
0.822000,-4.578
0.823000,-4.578
0.824000,-4.578
0.825000,-4.578
0.826000,-4.578
0.827000,-4.578
0.828000,-4.578
0.829000,-4.578
0.830000,-4.578
0.831000,-4.578
0.832000,-4.292
0.833000,-4.244
0.834000,-4.244
0.835000,-4.244
0.836000,-4.244
0.837000,-4.244
0.838000,-4.244
0.839000,-4.244
0.840000,-4.244
0.841000,-4.244
0.842000,-4.244
0.843000,-4.244
0.844000,-4.196
0.845000,-4.196
0.846000,-4.196
0.847000,-4.196
0.848000,-4.196
0.849000,-4.196
0.850000,-4.196
0.851000,-4.196
0.852000,-4.196
0.853000,-4.196
0.854000,-4.196
0.855000,-4.196
0.856000,-4.148
0.857000,-4.148
0.858000,-4.148
0.859000,-4.148
0.860000,-4.148
0.861000,-4.148
0.862000,-4.148
0.863000,-4.148
0.864000,-3.767
0.865000,-3.767
0.866000,-3.767
0.867000,-3.767
0.868000,-3.767
0.869000,-3.767
0.870000,-3.767
0.871000,-3.767
0.872000,-3.767
0.873000,-3.719
0.874000,-3.719
0.875000,-3.719
0.876000,-3.719
0.877000,-3.719
0.878000,-3.719
0.879000,-3.719
0.880000,-3.719
0.881000,-3.719
0.882000,-3.719
0.883000,-3.672
0.884000,-3.672
0.885000,-3.672
0.886000,-3.672
0.887000,-3.672
0.888000,-3.672
0.889000,-3.672
0.890000,-3.672
0.891000,-3.672
0.892000,-3.672
0.893000,-3.672
0.894000,-3.624
0.895000,-3.624
0.896000,-3.242
0.897000,-3.242
0.898000,-3.195
0.899000,-3.195
0.900000,-3.195
0.901000,-3.195
0.902000,-3.195
0.903000,-3.195
0.904000,-3.195
0.905000,-3.195
0.906000,-3.195
0.907000,-3.147
0.908000,-3.147
0.909000,-3.147
0.910000,-3.147
0.911000,-3.147
0.912000,-3.147
0.913000,-3.147
0.914000,-3.147
0.915000,-3.147
0.916000,-3.147
0.917000,-3.099
0.918000,-3.099
0.919000,-3.099
0.920000,-3.099
0.921000,-3.099
0.922000,-3.099
0.923000,-3.099
0.924000,-3.099
0.925000,-3.099
0.926000,-3.052
0.927000,-3.052
0.928000,-2.623
0.929000,-2.575
0.930000,-2.575
0.931000,-2.575
0.932000,-2.575
0.933000,-2.575
0.934000,-2.575
0.935000,-2.575
0.936000,-2.575
0.937000,-2.575
0.938000,-2.575
0.939000,-2.527
0.940000,-2.527
0.941000,-2.527
0.942000,-2.527
0.943000,-2.527
0.944000,-2.527
0.945000,-2.527
0.946000,-2.527
0.947000,-2.527
0.948000,-2.480
0.949000,-2.480
0.950000,-2.480
0.951000,-2.480
0.952000,-2.480
0.953000,-2.480
0.954000,-2.480
0.955000,-2.480
0.956000,-2.480
0.957000,-2.480
0.958000,-2.432
0.959000,-2.432
0.960000,-2.003
0.961000,-2.003
0.962000,-2.003
0.963000,-2.003
0.964000,-2.003
0.965000,-2.003
0.966000,-1.955
0.967000,-1.955
0.968000,-1.955
0.969000,-1.955
0.970000,-1.955
0.971000,-1.955
0.972000,-1.955
0.973000,-1.955
0.974000,-1.955
0.975000,-1.907
0.976000,-1.907
0.977000,-1.907
0.978000,-1.907
0.979000,-1.907
0.980000,-1.907
0.981000,-1.907
0.982000,-1.907
0.983000,-1.860
0.984000,-1.860
0.985000,-1.860
0.986000,-1.860
0.987000,-1.860
0.988000,-1.860
0.989000,-1.860
0.990000,-1.860
0.991000,-1.860
0.992000,-1.383
0.993000,-1.383
0.994000,-1.383
0.995000,-1.383
0.996000,-1.383
0.997000,-1.335
0.998000,-1.335
0.999000,-1.335
1.000000,-1.335
1.001000,-1.335
1.002000,-1.335
1.003000,-1.335
1.004000,-1.335
1.005000,-1.335
1.006000,-1.335
1.007000,-1.287
1.008000,-1.287
1.009000,-1.287
1.010000,-1.287
1.011000,-1.287
1.012000,-1.287
1.013000,-1.287
1.014000,-1.287
1.015000,-1.287
1.016000,-1.287
1.017000,-1.240
1.018000,-1.240
1.019000,-1.240
1.020000,-1.240
1.021000,-1.240
1.022000,-1.240
1.023000,-1.240
1.024000,-0.811
1.025000,-0.811
1.026000,-0.811
1.027000,-0.811
1.028000,-0.811
1.029000,-0.763
1.030000,-0.763
1.031000,-0.763
1.032000,-0.763
1.033000,-0.763
1.034000,-0.763
1.035000,-0.763
1.036000,-0.763
1.037000,-0.763
1.038000,-0.763
1.039000,-0.715
1.040000,-0.715
1.041000,-0.715
1.042000,-0.715
1.043000,-0.715
1.044000,-0.715
1.045000,-0.715
1.046000,-0.715
1.047000,-0.715
1.048000,-0.715
1.049000,-0.668
1.050000,-0.668
1.051000,-0.668
1.052000,-0.668
1.053000,-0.668
1.054000,-0.668
1.055000,-0.668
1.056000,-0.286
1.057000,-0.286
1.058000,-0.286
1.059000,-0.286
1.060000,-0.286
1.061000,-0.286
1.062000,-0.238
1.063000,-0.238
1.064000,-0.238
1.065000,-0.238
1.066000,-0.238
1.067000,-0.238
1.068000,-0.238
1.069000,-0.238
1.070000,-0.238
1.071000,-0.238
1.072000,-0.238
1.073000,-0.238
1.074000,-0.191
1.075000,-0.191
1.076000,-0.191
1.077000,-0.191
1.078000,-0.191
1.079000,-0.191
1.080000,-0.191
1.081000,-0.191
1.082000,-0.191
1.083000,-0.191
1.084000,-0.191
1.085000,-0.143
1.086000,-0.143
1.087000,-0.143
1.088000,0.143
1.089000,0.143
1.090000,0.143
1.091000,0.143
1.092000,0.143
1.093000,0.143
1.094000,0.143
1.095000,0.143
1.096000,0.143
1.097000,0.143
1.098000,0.191
1.099000,0.191
1.100000,0.191
1.101000,0.191
1.102000,0.191
1.103000,0.191
1.104000,0.191
1.105000,0.191
1.106000,0.191
1.107000,0.191
1.108000,0.191
1.109000,0.191
1.110000,0.191
1.111000,0.191
1.112000,0.238
1.113000,0.238
1.114000,0.238
1.115000,0.238
1.116000,0.238
1.117000,0.238
1.118000,0.238
1.119000,0.238
1.120000,0.525
1.121000,0.525
1.122000,0.525
1.123000,0.525
1.124000,0.525
1.125000,0.525
1.126000,0.525
1.127000,0.525
1.128000,0.525
1.129000,0.525
1.130000,0.525
1.131000,0.572
1.132000,0.572
1.133000,0.572
1.134000,0.572
1.135000,0.572
1.136000,0.572
1.137000,0.572
1.138000,0.572
1.139000,0.572
1.140000,0.572
1.141000,0.572
1.142000,0.572
1.143000,0.572
1.144000,0.572
1.145000,0.572
1.146000,0.572
1.147000,0.572
1.148000,0.620
1.149000,0.620
1.150000,0.620
1.151000,0.620
0.157012,0.811
0.157149,0.811
0.157285,0.858
0.157421,0.858
0.157558,0.858
0.157694,0.858
0.157830,0.858
0.157966,0.858
0.158103,0.858
0.158239,0.858
0.158375,0.858
0.158512,0.858
0.158648,0.858
0.158784,0.858
0.158921,0.858
0.159057,0.858
0.159193,0.858
0.159329,0.858
0.159466,0.858
0.159602,0.858
0.159738,0.858
0.159875,0.858
0.160011,0.858
0.160147,0.906
0.160283,0.906
0.160420,0.906
0.160556,0.906
0.160692,0.906
0.160829,0.906
0.160965,0.906
0.161101,0.906
0.161238,0.906
0.161374,1.049
0.161510,1.049
0.161646,1.049
0.161783,1.049
0.161919,1.097
0.162055,1.097
0.162192,1.097
0.162328,1.097
0.162464,1.097
0.162601,1.097
0.162737,1.097
0.162873,1.097
0.163009,1.097
0.163146,1.097
0.163282,1.097
0.163418,1.097
0.163555,1.097
0.163691,1.097
0.163827,1.097
0.163963,1.097
0.164100,1.097
0.164236,1.097
0.164372,1.097
0.164509,1.097
0.164645,1.097
0.164781,1.097
0.164918,1.097
0.165054,1.097
0.165190,1.097
0.165326,1.097
0.165463,1.097
0.165599,1.097
0.165735,1.240
0.165872,1.240
0.166008,1.240
0.166144,1.240
0.166280,1.240
0.166417,1.240
0.166553,1.240
0.166689,1.240
0.166826,1.240
0.166962,1.240
0.167098,1.240
0.167235,1.240
0.167371,1.240
0.167507,1.240
0.167643,1.240
0.167780,1.240
0.167916,1.240
0.168052,1.240
0.168189,1.240
0.168325,1.240
0.168461,1.240
0.168598,1.240
0.168734,1.240
0.168870,1.240
0.169006,1.240
0.169143,1.240
0.169279,1.240
0.169415,1.240
0.169552,1.240
0.169688,1.240
0.169824,1.240
0.169960,1.240
0.170097,1.335
0.170233,1.335
0.170369,1.335
0.170506,1.335
0.170642,1.335
0.170778,1.335
0.170915,1.335
0.171051,1.335
0.171187,1.335
0.171323,1.335
0.171460,1.335
0.171596,1.335
0.171732,1.335
0.171869,1.335
0.172005,1.335
0.172141,1.335
0.172277,1.335
0.172414,1.335
0.172550,1.335
0.172686,1.335
0.172823,1.335
0.172959,1.335
0.173095,1.335
0.173232,1.335
0.173368,1.335
0.173504,1.335
0.173640,1.335
0.173777,1.335
0.173913,1.335
0.174049,1.335
0.174186,1.335
0.174322,1.335
0.174458,1.335
0.174595,1.335
0.174731,1.335
0.174867,1.335
0.175003,1.335
0.175140,1.335
0.175276,1.335
0.175412,1.335
0.175549,1.335
0.175685,1.335
0.175821,1.335
0.175957,1.335
0.176094,1.335
0.176230,1.335
0.176366,1.335
0.176503,1.335
0.176639,1.335
0.176775,1.335
0.176912,1.335
0.177048,1.335
0.177184,1.335
0.177320,1.335
0.177457,1.335
0.177593,1.335
0.177729,1.335
0.177866,1.335
0.178002,1.335
0.178138,1.335
0.178274,1.335
0.178411,1.335
0.178547,1.335
0.178683,1.335
0.178820,1.335
0.178956,1.335
0.179092,1.335
0.179229,1.335
0.179365,1.335
0.179501,1.335
0.179637,1.335
0.179774,1.335
0.179910,1.335
0.180046,1.335
0.180183,1.335
0.180319,1.335
0.180455,1.335
0.180592,1.335
0.180728,1.335
0.180864,1.335
0.181000,1.335
0.181137,1.335
0.181273,1.335
0.181409,1.335
0.181546,1.335
0.181682,1.287
0.181818,1.287
0.181954,1.287
0.182091,1.287
0.182227,1.287
0.182363,1.287
0.182500,1.287
0.182636,1.287
0.182772,1.287
0.182909,1.287
0.183045,1.287
0.183181,1.240
0.183317,1.240
0.183454,1.240
0.183590,1.240
0.183726,1.240
0.183863,1.240
0.183999,1.240
0.184135,1.240
0.184272,1.240
0.184408,1.240
0.184544,1.240
0.184680,1.240
0.184817,1.240
0.184953,1.240
0.185089,1.240
0.185226,1.240
0.185362,1.240
0.185498,1.240
0.185634,1.240
0.185771,1.240
0.185907,1.240
0.186043,1.240
0.186180,1.240
0.186316,1.240
0.186452,1.240
0.186589,1.240
0.186725,1.240
0.186861,1.240
0.186997,1.240
0.187134,1.240
0.187270,1.240
0.187406,1.240
0.187543,1.144
0.187679,1.144
0.187815,1.144
0.187951,1.144
0.188088,1.144
0.188224,1.144
0.188360,1.144
0.188497,1.144
0.188633,1.144
0.188769,1.144
0.188906,1.144
0.189042,1.144
0.189178,1.144
0.189314,1.144
0.189451,1.097
0.189587,1.097
0.189723,1.097
0.189860,1.097
0.189996,1.097
0.190132,1.097
0.190269,1.097
0.190405,1.097
0.190541,1.097
0.190677,1.097
0.190814,1.097
0.190950,1.097
0.191086,1.097
0.191223,1.097
0.191359,1.097
0.191495,1.097
0.191631,1.097
0.191768,1.097
0.191904,0.954
0.192040,0.954
0.192177,0.954
0.192313,0.954
0.192449,0.954
0.192586,0.954
0.192722,0.954
0.192858,0.954
0.192994,0.954
0.193131,0.954
0.193267,0.954
0.193403,0.954
0.193540,0.954
0.193676,0.954
0.193812,0.954
0.193948,0.954
0.194085,0.954
0.194221,0.954
0.194357,0.954
0.194494,0.906
0.194630,0.906
0.194766,0.906
0.194903,0.906
0.195039,0.906
0.195175,0.906
0.195311,0.906
0.195448,0.906
0.195584,0.906
0.195720,0.906
0.195857,0.906
0.195993,0.906
0.196129,0.906
0.196266,0.811
0.196402,0.811
0.196538,0.763
0.196674,0.763
0.196811,0.763
0.196947,0.763
0.197083,0.763
0.197220,0.763
0.197356,0.763
0.197492,0.763
0.197628,0.763
0.197765,0.763
0.197901,0.763
0.198037,0.763
0.198174,0.763
0.198310,0.763
0.198446,0.763
0.198583,0.763
0.198719,0.763
0.198855,0.763
0.198991,0.763
0.199128,0.763
0.199264,0.763
0.199400,0.763
0.199537,0.763
0.199673,0.763
0.199809,0.763
0.199945,0.763
0.200082,0.763
0.200218,0.763
0.200354,0.763
0.200491,0.763
0.200627,0.620
0.200763,0.620
0.200900,0.620
0.201036,0.620
0.201172,0.620
0.201308,0.620
0.201445,0.620
0.201581,0.620
0.201717,0.620
0.201854,0.620
0.201990,0.620
0.202126,0.620
0.202263,0.620
0.202399,0.620
0.202535,0.620
0.202671,0.620
0.202808,0.620
0.202944,0.620
0.203080,0.620
0.203217,0.620
0.203353,0.620
0.203489,0.620
0.203625,0.572
0.203762,0.572
0.203898,0.572
0.204034,0.572
0.204171,0.572
0.204307,0.572
0.204443,0.572
0.204580,0.572
0.204716,0.572
0.204852,0.572
0.204988,0.477
0.205125,0.477
0.205261,0.477
0.205397,0.477
0.205534,0.429
0.205670,0.429
0.205806,0.429
0.205942,0.429
0.206079,0.429
0.206215,0.429
0.206351,0.429
0.206488,0.429
0.206624,0.429
0.206760,0.429
0.206897,0.429
0.207033,0.429
0.207169,0.429
0.207305,0.429
0.207442,0.429
0.207578,0.429
0.207714,0.429
0.207851,0.429
0.207987,0.429
0.208123,0.429
0.208260,0.429
0.208396,0.429
0.208532,0.429
0.208668,0.429
0.208805,0.429
0.208941,0.429
0.209077,0.429
0.209214,0.429
0.209350,0.286
0.209486,0.286
0.209622,0.286
0.209759,0.286
0.209895,0.286
0.210031,0.286
0.210168,0.286
0.210304,0.286
0.210440,0.286
0.210577,0.286
0.210713,0.286
0.210849,0.286
0.210985,0.286
0.211122,0.286
0.211258,0.286
0.211394,0.286
0.211531,0.286
0.211667,0.286
0.211803,0.286
0.211939,0.286
0.212076,0.286
0.212212,0.286
0.212348,0.238
0.212485,0.238
0.212621,0.238
0.212757,0.238
0.212894,0.238
0.213030,0.238
0.213166,0.238
0.213302,0.238
0.213439,0.238
0.213575,0.238
0.213711,0.143
0.213848,0.143
0.213984,0.143
0.214120,0.143
0.214257,0.143
0.214393,0.143
0.214529,0.143
0.214665,0.143
0.214802,0.143
0.214938,0.143
0.215074,0.143
0.215211,0.143
0.215347,0.143
0.215483,0.143
0.215619,0.143
0.215756,0.143
0.215892,0.095
0.216028,0.095
0.216165,0.095
0.216301,0.095
0.216437,0.095
0.216574,0.095
0.216710,0.095
0.216846,0.095
0.216982,0.095
0.217119,0.095
0.217255,0.095
0.217391,0.095
0.217528,0.095
0.217664,0.095
0.217800,0.095
0.217936,0.095
0.218073,0.000
0.218209,0.000
0.218345,0.000
0.218482,0.000
0.218618,0.000
0.218754,0.000
0.218891,0.000
0.219027,0.000
0.219163,0.000
0.219299,0.000
0.219436,0.000
0.219572,0.000
0.219708,0.000
0.219845,0.000
0.219981,0.000
0.220117,0.000
0.220254,0.000
0.220390,0.000
0.220526,0.000
0.220662,0.000
0.220799,0.000
0.220935,0.000
0.221071,0.000
0.221208,0.000
0.221344,0.000
0.221480,0.000
0.221616,0.000
0.221753,0.000
0.221889,0.000
0.222025,0.000
0.222162,0.000
0.222298,0.000
0.222434,-0.048
0.222571,-0.048
0.222707,-0.048
0.222843,-0.048
0.222979,-0.095
0.223116,-0.095
0.223252,-0.095
0.223388,-0.095
0.223525,-0.095
0.223661,-0.095
0.223797,-0.095
0.223933,-0.095
0.224070,-0.095
0.224206,-0.095
0.224342,-0.095
0.224479,-0.095
0.224615,-0.095
0.224751,-0.095
0.224888,-0.095
0.225024,-0.095
0.225160,-0.095
0.225296,-0.095
0.225433,-0.095
0.225569,-0.095
0.225705,-0.095
0.225842,-0.095
0.225978,-0.095
0.226114,-0.095
0.226251,-0.095
0.226387,-0.095
0.226523,-0.095
0.226659,-0.095
0.226796,-0.191
0.226932,-0.191
0.227068,-0.191
0.227205,-0.191
0.227341,-0.191
0.227477,-0.191
0.227613,-0.191
0.227750,-0.191
0.227886,-0.191
0.228022,-0.191
0.228159,-0.191
0.228295,-0.191
0.228431,-0.191
0.228568,-0.191
0.228704,-0.191
0.228840,-0.191
0.228976,-0.191
0.229113,-0.191
0.229249,-0.191
0.229385,-0.191
0.229522,-0.191
0.229658,-0.191
0.229794,-0.191
0.229930,-0.191
0.230067,-0.191
0.230203,-0.191
0.230339,-0.191
0.230476,-0.191
0.230612,-0.191
0.230748,-0.191
0.230885,-0.191
0.231021,-0.191
0.231157,-0.238
0.231293,-0.238
0.231430,-0.238
0.231566,-0.238
0.231702,-0.238
0.231839,-0.238
0.231975,-0.238
0.232111,-0.238
0.232248,-0.238
0.232384,-0.238
0.232520,-0.238
0.232656,-0.238
0.232793,-0.238
0.232929,-0.238
0.233065,-0.238
0.233202,-0.238
0.233338,-0.238
0.233474,-0.238
0.233610,-0.238
0.233747,-0.238
0.233883,-0.238
0.234019,-0.238
0.234156,-0.238
0.234292,-0.238
0.234428,-0.238
0.234565,-0.238
0.234701,-0.238
0.234837,-0.238
0.234973,-0.238
0.235110,-0.238
0.235246,-0.238
0.235382,-0.238
0.235519,-0.286
0.235655,-0.286
0.235791,-0.286
0.235927,-0.286
0.236064,-0.286
0.236200,-0.286
0.236336,-0.286
0.236473,-0.286
0.236609,-0.286
0.236745,-0.286
0.236882,-0.286
0.237018,-0.286
0.237154,-0.286
0.237290,-0.286
0.237427,-0.286
0.237563,-0.286
0.237699,-0.286
0.237836,-0.286
0.237972,-0.286
0.238108,-0.286
0.238245,-0.286
0.238381,-0.286
0.238517,-0.286
0.238653,-0.286
0.238790,-0.286
0.238926,-0.286
0.239062,-0.286
0.239199,-0.286
0.239335,-0.286
0.239471,-0.334
0.239607,-0.334
0.239744,-0.334
0.239880,-0.334
0.240016,-0.334
0.240153,-0.334
0.240289,-0.334
0.240425,-0.334
0.240562,-0.334
0.240698,-0.334
0.240834,-0.334
0.240970,-0.334
0.241107,-0.334
0.241243,-0.334
0.241379,-0.334
0.241516,-0.334
0.241652,-0.334
0.241788,-0.334
0.241924,-0.334
0.242061,-0.334
0.242197,-0.334
0.242333,-0.334
0.242470,-0.334
0.242606,-0.334
0.242742,-0.334
0.242879,-0.334
0.243015,-0.334
0.243151,-0.334
0.243287,-0.334
0.243424,-0.334
0.243560,-0.334
0.243696,-0.334
0.243833,-0.334
0.243969,-0.334
0.244105,-0.334
0.244242,-0.334
0.244378,-0.334
0.244514,-0.334
0.244650,-0.334
0.244787,-0.334
0.244923,-0.334
0.245059,-0.334
0.245196,-0.334
0.245332,-0.334
0.245468,-0.334
0.245604,-0.334
0.245741,-0.334
0.245877,-0.334
0.246013,-0.334
0.246150,-0.334
0.246286,-0.334
0.246422,-0.334
0.246559,-0.334
0.246695,-0.334
0.246831,-0.334
0.246967,-0.334
0.247104,-0.334
0.247240,-0.334
0.247376,-0.334
0.247513,-0.334
0.247649,-0.334
0.247785,-0.334
0.247921,-0.334
0.248058,-0.334
0.248194,-0.334
0.248330,-0.334
0.248467,-0.334
0.248603,-0.334
0.248739,-0.334
0.248876,-0.334
0.249012,-0.334
0.249148,-0.334
0.249284,-0.334
0.249421,-0.334
0.249557,-0.334
0.249693,-0.334
0.249830,-0.334
0.249966,-0.334
0.250102,-0.334
0.250239,-0.334
0.250375,-0.334
0.250511,-0.334
0.250647,-0.334
0.250784,-0.334
0.250920,-0.334
0.251056,-0.334
0.251193,-0.334
0.251329,-0.334
0.251465,-0.334
0.251601,-0.334
0.251738,-0.334
0.251874,-0.334
0.252010,-0.334
0.252147,-0.334
0.252283,-0.334
0.252419,-0.334
0.252556,-0.334
0.252692,-0.334
0.252828,-0.334
0.252964,-0.286
0.253101,-0.238
0.253237,-0.191
0.253373,-0.143
0.253510,-0.048
0.253646,0.000
0.253782,0.095
0.253918,0.238
0.254055,0.429
0.254191,0.620
0.254327,0.811
0.254464,1.049
0.254600,1.335
0.254736,1.669
0.254873,2.003
0.255009,2.384
0.255145,2.813
0.255281,3.290
0.255418,3.767
0.255554,4.339
0.255690,4.911
0.255827,5.531
0.255963,6.199
0.256099,6.914
0.256236,7.677
0.256372,8.488
0.256508,9.346
0.256644,10.252
0.256781,11.206
0.256917,12.207
0.257053,13.256
0.257190,14.353
0.257326,158.024
0.257462,158.548
0.257598,159.025
0.257735,159.454
0.257871,159.836
0.258007,160.170
0.258144,160.456
0.258280,160.694
0.258416,160.885
0.258553,161.028
0.258689,161.123
0.258825,161.171
0.258961,161.171
0.259098,161.123
0.259234,161.076
0.259370,160.933
0.259507,160.789
0.259643,160.551
0.259779,160.313
0.259915,160.027
0.260052,159.740
0.260188,159.359
0.260324,158.978
0.260461,158.548
0.260597,158.072
0.260733,157.595
0.260870,157.022
0.261006,156.450
0.261142,155.878
0.261278,155.210
0.261415,154.591
0.261551,153.875
0.261687,70.715
0.261824,70.143
0.261960,69.571
0.262096,68.998
0.262233,68.474
0.262369,67.902
0.262505,67.377
0.262641,66.900
0.262778,66.376
0.262914,65.899
0.263050,65.422
0.263187,64.945
0.263323,64.516
0.263459,64.039
0.263595,63.610
0.263732,63.181
0.263868,62.752
0.264004,62.323
0.264141,61.941
0.264277,61.512
0.264413,61.131
0.264550,60.749
0.264686,60.368
0.264822,59.986
0.264958,59.605
0.265095,59.223
0.265231,58.842
0.265367,58.460
0.265504,58.079
0.265640,57.745
0.265776,57.364
0.265912,56.982
0.266049,14.925
0.266185,14.353
0.266321,13.828
0.266458,13.256
0.266594,12.732
0.266730,12.159
0.266867,11.635
0.267003,11.110
0.267139,10.538
0.267275,10.014
0.267412,9.489
0.267548,9.012
0.267684,8.488
0.267821,7.963
0.267957,7.439
0.268093,6.962
0.268230,6.485
0.268366,5.960
0.268502,5.484
0.268638,5.007
0.268775,4.530
0.268911,4.053
0.269047,3.624
0.269184,3.147
0.269320,2.670
0.269456,2.241
0.269592,1.812
0.269729,1.335
0.269865,0.906
0.270001,0.477
0.270138,0.048
0.270274,-0.334
0.270410,-136.328
0.270547,-138.664
0.270683,-141.001
0.270819,-143.290
0.270955,-145.531
0.271092,-147.772
0.271228,-149.965
0.271364,-152.159
0.271501,-154.305
0.271637,-156.403
0.271773,-158.453
0.271909,-160.503
0.272046,-162.506
0.272182,-164.461
0.272318,-166.368
0.272455,-168.276
0.272591,-170.088
0.272727,-171.900
0.272864,-173.664
0.273000,-175.333
0.273136,-177.002
0.273272,-178.623
0.273409,-180.197
0.273545,-181.675
0.273681,-183.153
0.273818,-184.584
0.273954,-185.919
0.274090,-187.254
0.274227,-188.494
0.274363,-189.734
0.274499,-190.878
0.274635,-191.975
0.274772,-148.249
0.274908,-147.247
0.275044,-146.294
0.275181,-145.292
0.275317,-144.339
0.275453,-143.385
0.275589,-142.431
0.275726,-141.478
0.275862,-140.572
0.275998,-139.666
0.276135,-138.807
0.276271,-137.901
0.276407,-137.043
0.276544,-136.232
0.276680,-135.374
0.276816,-134.563
0.276952,-133.801
0.277089,-132.990
0.277225,-132.227
0.277361,-131.464
0.277498,-130.749
0.277634,-130.033
0.277770,-129.318
0.277907,-128.651
0.278043,-127.983
0.278179,-127.316
0.278315,-126.696
0.278452,-126.076
0.278588,-125.456
0.278724,-124.884
0.278861,-124.311
0.278997,-123.739
0.279133,-99.945
0.279269,-99.659
0.279406,-99.325
0.279542,-99.039
0.279678,-98.705
0.279815,-98.372
0.279951,-98.038
0.280087,-97.752
0.280224,-97.370
0.280360,-97.036
0.280496,-96.703
0.280632,-96.369
0.280769,-96.035
0.280905,-95.654
0.281041,-95.320
0.281178,-94.938
0.281314,-94.604
0.281450,-94.223
0.281586,-93.842
0.281723,-93.508
0.281859,-93.126
0.281995,-92.745
0.282132,-92.363
0.282268,-91.982
0.282404,-91.600
0.282541,-91.219
0.282677,-90.837
0.282813,-90.408
0.282949,-90.027
0.283086,-89.645
0.283222,-89.216
0.283358,-88.835
0.283495,-53.883
0.283631,-53.501
0.283767,-53.167
0.283904,-52.834
0.284040,-52.547
0.284176,-52.214
0.284312,-51.928
0.284449,-51.641
0.284585,-51.355
0.284721,-51.069
0.284858,-50.783
0.284994,-50.545
0.285130,-50.259
0.285266,-50.020
0.285403,-49.782
0.285539,-49.496
0.285675,-49.257
0.285812,-49.019
0.285948,-48.780
0.286084,-48.542
0.286221,-48.304
0.286357,-48.065
0.286493,-47.827
0.286629,-47.541
0.286766,-47.302
0.286902,-47.064
0.287038,-46.825
0.287175,-46.539
0.287311,-46.301
0.287447,-46.015
0.287583,-45.776
0.287720,-45.490
0.287856,-22.125
0.287992,-21.935
0.288129,-21.696
0.288265,-21.505
0.288401,-21.267
0.288538,-21.076
0.288674,-20.885
0.288810,-20.647
0.288946,-20.456
0.289083,-20.266
0.289219,-20.027
0.289355,-19.836
0.289492,-19.646
0.289628,-19.455
0.289764,-19.217
0.289901,-19.026
0.290037,-18.835
0.290173,-18.644
0.290309,-18.454
0.290446,-18.263
0.290582,-18.072
0.290718,-17.881
0.290855,-17.691
0.290991,-17.500
0.291127,-17.357
0.291263,-17.166
0.291400,-16.975
0.291536,-16.785
0.291672,-16.594
0.291809,-16.451
0.291945,-16.260
0.292081,-16.069
0.292218,0.525
0.292354,0.715
0.292490,0.954
0.292626,1.144
0.292763,1.383
0.292899,1.574
0.293035,1.812
0.293172,2.003
0.293308,2.193
0.293444,2.432
0.293580,2.623
0.293717,2.813
0.293853,3.004
0.293989,3.195
0.294126,3.386
0.294262,3.576
0.294398,3.767
0.294535,3.958
0.294671,4.148
0.294807,4.339
0.294943,4.482
0.295080,4.673
0.295216,4.864
0.295352,5.007
0.295489,5.198
0.295625,5.341
0.295761,5.531
0.295898,5.674
0.296034,5.817
0.296170,6.008
0.296306,6.151
0.296443,6.294
0.296579,11.158
0.296715,10.586
0.296852,9.918
0.296988,9.203
0.297124,8.440
0.297260,7.629
0.297397,6.771
0.297533,5.865
0.297669,4.959
0.297806,3.958
0.297942,2.909
0.298078,1.812
0.298215,0.668
0.298351,-0.477
0.298487,-1.717
0.298623,-3.004
0.298760,-4.292
0.298896,-5.674
0.299032,-7.105
0.299169,-8.535
0.299305,-10.061
0.299441,-11.587
0.299577,-13.161
0.299714,-14.782
0.299850,-16.451
0.299986,-18.167
0.300123,-19.884
0.300259,-21.648
0.300395,-23.413
0.300532,-25.225
0.300668,-27.084
0.300804,-28.944
0.300940,-179.625
0.301077,-180.197
0.301213,-180.674
0.301349,-181.055
0.301486,-181.293
0.301622,-181.437
0.301758,-181.484
0.301895,-181.389
0.302031,-181.198
0.302167,-180.864
0.302303,-180.435
0.302440,-179.815
0.302576,-179.100
0.302712,-178.242
0.302849,-177.240
0.302985,-176.048
0.303121,-174.761
0.303257,-173.283
0.303394,-171.661
0.303530,-169.897
0.303666,-167.942
0.303803,-165.844
0.303939,-163.555
0.304075,-161.123
0.304212,-158.501
0.304348,-155.687
0.304484,-152.731
0.304620,-149.536
0.304757,-146.198
0.304893,-142.717
0.305029,-138.998
0.305166,-135.088
0.305302,739.765
0.305438,752.020
0.305574,764.227
0.305711,776.386
0.305847,788.450
0.305983,800.419
0.306120,812.340
0.306256,824.165
0.306392,835.896
0.306529,847.578
0.306665,859.118
0.306801,870.609
0.306937,881.958
0.307074,893.211
0.307210,904.417
0.307346,915.480
0.307483,926.447
0.307619,937.319
0.307755,948.048
0.307892,958.681
0.308028,969.219
0.308164,979.614
0.308300,989.914
0.308437,1000.071
0.308573,1010.180
0.308709,1020.098
0.308846,1029.921
0.308982,1039.648
0.309118,1049.232
0.309254,1058.722
0.309391,1068.068
0.309527,1077.271
0.309663,1069.593
0.309800,1057.339
0.309936,1044.798
0.310072,1032.019
0.310209,1019.001
0.310345,1005.697
0.310481,992.203
0.310617,978.470
0.310754,964.499
0.310890,950.289
0.311026,935.841
0.311163,921.249
0.311299,906.420
0.311435,891.352
0.311571,876.141
0.311708,860.691
0.311844,845.098
0.311980,829.315
0.312117,813.389
0.312253,797.272
0.312389,780.964
0.312526,764.561
0.312662,747.967
0.312798,731.277
0.312934,714.397
0.313071,697.422
0.313207,680.351
0.313343,663.137
0.313480,645.781
0.313616,628.376
0.313752,610.828
0.313889,593.185
0.314025,-747.442
0.314161,-757.456
0.314297,-767.231
0.314434,-776.911
0.314570,-786.352
0.314706,-795.603
0.314843,-804.663
0.314979,-813.484
0.315115,-822.163
0.315251,-830.603
0.315388,-838.852
0.315524,-846.910
0.315660,-854.731
0.315797,-862.360
0.315933,-869.799
0.316069,-876.951
0.316206,-883.961
0.316342,-890.684
0.316478,-897.217
0.316614,-903.511
0.316751,-909.615
0.316887,-915.432
0.317023,-921.059
0.317160,-926.495
0.317296,-931.644
0.317432,-936.556
0.317568,-941.277
0.317705,-945.759
0.317841,-950.003
0.317977,-954.008
0.318114,-957.775
0.318250,-961.304
0.318386,-688.934
0.318523,-682.926
0.318659,-676.918
0.318795,-670.910
0.318931,-664.902
0.319068,-658.894
0.319204,-652.933
0.319340,-646.925
0.319477,-640.965
0.319613,-635.004
0.319749,-629.044
0.319886,-623.131
0.320022,-617.218
0.320158,-611.305
0.320294,-605.440
0.320431,-599.575
0.320567,-593.758
0.320703,-587.940
0.320840,-582.170
0.320976,-576.401
0.321112,-570.679
0.321248,-565.004
0.321385,-559.378
0.321521,-553.751
0.321657,-548.172
0.321794,-542.641
0.321930,-537.109
0.322066,-531.673
0.322203,-526.237
0.322339,-520.849
0.322475,-515.556
0.322611,-510.263
0.322748,-277.710
0.322884,-276.995
0.323020,-276.279
0.323157,-275.564
0.323293,-274.897
0.323429,-274.229
0.323565,-273.561
0.323702,-272.894
0.323838,-272.226
0.323974,-271.606
0.324111,-270.939
0.324247,-270.319
0.324383,-269.699
0.324520,-269.079
0.324656,-268.459
0.324792,-267.839
0.324928,-267.220
0.325065,-266.600
0.325201,-265.980
0.325337,-265.360
0.325474,-264.740
0.325610,-264.120
0.325746,-263.500
0.325883,-262.880
0.326019,-262.260
0.326155,-261.641
0.326291,-260.973
0.326428,-260.353
0.326564,-259.686
0.326700,-259.018
0.326837,-258.398
0.326973,-257.730
0.327109,-175.238
0.327245,-174.284
0.327382,-173.330
0.327518,-172.377
0.327654,-171.423
0.327791,-170.517
0.327927,-169.563
0.328063,-168.657
0.328200,-167.704
0.328336,-166.798
0.328472,-165.844
0.328608,-164.938
0.328745,-164.032
0.328881,-163.078
0.329017,-162.172
0.329154,-161.266
0.329290,-160.360
0.329426,-159.454
0.329562,-158.501
0.329699,-157.595
0.329835,-156.689
0.329971,-155.783
0.330108,-154.877
0.330244,-153.971
0.330380,-153.065
0.330517,-152.206
0.330653,-151.300
0.330789,-150.394
0.330925,-149.488
0.331062,-148.582
0.331198,-147.676
0.331334,-146.818
0.331471,-76.342
0.331607,-75.626
0.331743,-74.911
0.331880,-74.196
0.332016,-73.433
0.332152,-72.718
0.332288,-72.002
0.332425,-71.287
0.332561,-70.572
0.332697,-69.809
0.332834,-69.094
0.332970,-68.331
0.333106,-67.616
0.333242,-66.853
0.333379,-66.090
0.333515,-65.327
0.333651,-64.564
0.333788,-63.801
0.333924,-63.038
0.334060,-62.275
0.334197,-61.464
0.334333,-60.701
0.334469,-59.891
0.334605,-59.080
0.334742,-58.270
0.334878,-57.459
0.335014,-56.648
0.335151,-55.838
0.335287,-54.979
0.335423,-54.169
0.335559,-53.310
0.335696,-52.452
0.335832,6.485
0.335968,6.866
0.336105,7.248
0.336241,7.582
0.336377,7.963
0.336514,8.345
0.336650,8.678
0.336786,9.060
0.336922,9.394
0.337059,9.727
0.337195,10.061
0.337331,10.395
0.337468,10.729
0.337604,11.063
0.337740,11.396
0.337877,11.730
0.338013,12.064
0.338149,12.398
0.338285,12.684
0.338422,13.018
0.338558,13.351
0.338694,13.638
0.338831,13.971
0.338967,14.305
0.339103,14.591
0.339239,14.925
0.339376,15.211
0.339512,15.545
0.339648,15.879
0.339785,16.165
0.339921,16.499
0.340057,16.832
0.340194,48.304
0.340330,48.828
0.340466,49.305
0.340602,49.782
0.340739,50.306
0.340875,50.783
0.341011,51.260
0.341148,51.785
0.341284,52.261
0.341420,52.786
0.341556,53.310
0.341693,53.787
0.341829,54.312
0.341965,54.789
0.342102,55.313
0.342238,55.838
0.342374,56.314
0.342511,56.839
0.342647,57.364
0.342783,57.840
0.342919,58.365
0.343056,58.889
0.343192,59.414
0.343328,59.891
0.343465,60.415
0.343601,60.940
0.343737,61.464
0.343874,61.941
0.344010,62.466
0.344146,62.990
0.344282,63.467
0.344419,63.992
0.344555,93.174
0.344691,93.317
0.344828,93.460
0.344964,93.603
0.345100,93.746
0.345236,93.889
0.345373,93.985
0.345509,94.128
0.345645,94.223
0.345782,94.366
0.345918,94.461
0.346054,94.604
0.346191,94.700
0.346327,94.795
0.346463,94.891
0.346599,95.034
0.346736,95.129
0.346872,95.224
0.347008,95.320
0.347145,95.415
0.347281,95.510
0.347417,95.606
0.347553,95.654
0.347690,95.749
0.347826,95.844
0.347962,95.940
0.348099,95.987
0.348235,96.083
0.348371,96.178
0.348508,96.226
0.348644,96.321
0.348780,96.369
0.348916,101.471
0.349053,101.662
0.349189,101.852
0.349325,101.995
0.349462,102.186
0.349598,102.377
0.349734,102.568
0.349871,102.758
0.350007,102.949
0.350143,103.140
0.350279,103.331
0.350416,103.569
0.350552,103.760
0.350688,103.951
0.350825,104.141
0.350961,104.380
0.351097,104.570
0.351233,104.761
0.351370,105.000
0.351506,105.190
0.351642,105.429
0.351779,105.619
0.351915,105.858
0.352051,106.049
0.352188,106.239
0.352324,106.478
0.352460,106.668
0.352596,106.907
0.352733,107.098
0.352869,107.288
0.353005,107.527
0.353142,107.718
0.353278,123.596
0.353414,123.692
0.353550,123.739
0.353687,123.835
0.353823,123.882
0.353959,123.930
0.354096,123.978
0.354232,124.025
0.354368,124.025
0.354505,124.073
0.354641,124.121
0.354777,124.121
0.354913,124.121
0.355050,124.121
0.355186,124.121
0.355322,124.121
0.355459,124.073
0.355595,124.073
0.355731,124.025
0.355868,124.025
0.356004,123.978
0.356140,123.930
0.356276,123.882
0.356413,123.835
0.356549,123.787
0.356685,123.739
0.356822,123.644
0.356958,123.596
0.357094,123.501
0.357230,123.453
0.357367,123.358
0.357503,123.262
0.357639,112.772
0.357776,112.677
0.357912,112.581
0.358048,112.486
0.358185,112.391
0.358321,112.247
0.358457,112.152
0.358593,112.057
0.358730,111.961
0.358866,111.866
0.359002,111.818
0.359139,111.723
0.359275,111.628
0.359411,111.532
0.359547,111.437
0.359684,111.389
0.359820,111.294
0.359956,111.198
0.360093,111.151
0.360229,111.055
0.360365,111.008
0.360502,110.912
0.360638,110.865
0.360774,110.769
0.360910,110.722
0.361047,110.626
0.361183,110.579
0.361319,110.531
0.361456,110.435
0.361592,110.388
0.361728,110.292
0.361865,110.245
0.362001,106.430
0.362137,106.430
0.362273,106.430
0.362410,106.430
0.362546,106.430
0.362682,106.382
0.362819,106.382
0.362955,106.382
0.363091,106.382
0.363227,106.335
0.363364,106.335
0.363500,106.335
0.363636,106.287
0.363773,106.287
0.363909,106.239
0.364045,106.239
0.364182,106.192
0.364318,106.192
0.364454,106.144
0.364590,106.144
0.364727,106.144
0.364863,106.144
0.364999,106.144
0.365136,106.144
0.365272,106.144
0.365408,106.192
0.365545,106.239
0.365681,106.335
0.365817,106.430
0.365953,106.573
0.366090,106.716
0.366226,106.859
0.366362,232.172
0.366499,233.603
0.366635,234.985
0.366771,236.320
0.366907,237.608
0.367044,238.848
0.367180,240.088
0.367316,241.232
0.367453,242.376
0.367589,243.473
0.367725,244.474
0.367862,245.476
0.367998,246.429
0.368134,247.288
0.368270,248.146
0.368407,248.957
0.368543,249.720
0.368679,250.435
0.368816,251.055
0.368952,251.675
0.369088,252.247
0.369224,252.771
0.369361,253.248
0.369497,253.630
0.369633,254.011
0.369770,254.345
0.369906,254.631
0.370042,254.822
0.370179,255.013
0.370315,255.156
0.370451,255.251
0.370587,255.299
0.370724,266.790
0.370860,267.506
0.370996,268.221
0.371133,268.936
0.371269,269.651
0.371405,270.319
0.371542,270.987
0.371678,271.606
0.371814,272.274
0.371950,272.894
0.372087,273.466
0.372223,274.038
0.372359,274.611
0.372496,275.135
0.372632,275.660
0.372768,276.136
0.372904,276.613
0.373041,277.042
0.373177,277.472
0.373313,277.853
0.373450,278.187
0.373586,278.521
0.373722,278.854
0.373859,279.140
0.373995,279.379
0.374131,279.617
0.374267,279.808
0.374404,279.951
0.374540,280.094
0.374676,280.190
0.374813,280.285
0.374949,280.285
0.375085,194.120
0.375221,192.833
0.375358,191.545
0.375494,190.306
0.375630,189.066
0.375767,187.826
0.375903,186.682
0.376039,185.537
0.376176,184.393
0.376312,183.296
0.376448,182.199
0.376584,181.150
0.376721,180.149
0.376857,179.148
0.376993,178.146
0.377130,177.193
0.377266,176.287
0.377402,175.333
0.377539,174.475
0.377675,173.616
0.377811,172.758
0.377947,171.900
0.378084,171.089
0.378220,170.279
0.378356,169.516
0.378493,168.753
0.378629,167.990
0.378765,167.227
0.378901,166.512
0.379038,165.796
0.379174,165.129
0.379310,164.461
0.379447,173.903
0.379583,173.950
0.379719,174.046
0.379856,174.046
0.379992,174.093
0.380128,174.046
0.380264,173.998
0.380401,173.950
0.380537,173.855
0.380673,173.759
0.380810,173.616
0.380946,173.426
0.381082,173.235
0.381218,173.044
0.381355,172.758
0.381491,172.520
0.381627,172.186
0.381764,171.852
0.381900,171.518
0.382036,171.137
0.382173,170.708
0.382309,170.279
0.382445,169.802
0.382581,169.325
0.382718,168.800
0.382854,168.276
0.382990,167.704
0.383127,167.084
0.383263,166.464
0.383399,165.796
0.383536,165.129
0.383672,164.461
0.383808,54.121
0.383944,52.595
0.384081,51.069
0.384217,49.543
0.384353,48.018
0.384490,46.492
0.384626,44.966
0.384762,43.488
0.384898,41.962
0.385035,40.483
0.385171,39.005
0.385307,37.527
0.385444,36.049
0.385580,34.618
0.385716,33.188
0.385853,31.710
0.385989,30.279
0.386125,28.896
0.386261,27.466
0.386398,26.083
0.386534,24.700
0.386670,23.317
0.386807,21.935
0.386943,20.599
0.387079,19.217
0.387215,17.881
0.387352,16.546
0.387488,15.259
0.387624,13.924
0.387761,12.636
0.387897,11.349
0.388033,10.109
0.388170,-75.674
0.388306,-76.914
0.388442,-78.154
0.388578,-79.441
0.388715,-80.729
0.388851,-82.111
0.388987,-83.494
0.389124,-84.972
0.389260,-86.451
0.389396,-87.976
0.389533,-89.550
0.389669,-91.171
0.389805,-92.840
0.389941,-94.557
0.390078,-96.273
0.390214,-98.085
0.390350,-99.945
0.390487,-101.805
0.390623,-103.760
0.390759,-105.762
0.390895,-107.765
0.391032,-109.863
0.391168,-111.961
0.391304,-114.107
0.391441,-116.348
0.391577,-118.589
0.391713,-120.878
0.391850,-123.215
0.391986,-125.599
0.392122,-127.983
0.392258,-130.463
0.392395,-132.942
0.392531,-314.522
0.392667,-314.903
0.392804,-315.237
0.392940,-315.523
0.393076,-315.762
0.393212,-315.952
0.393349,-316.143
0.393485,-316.238
0.393621,-316.334
0.393758,-316.381
0.393894,-316.429
0.394030,-316.381
0.394167,-316.334
0.394303,-316.238
0.394439,-316.143
0.394575,-316.000
0.394712,-315.809
0.394848,-315.571
0.394984,-315.332
0.395121,-315.094
0.395257,-314.808
0.395393,-314.474
0.395530,-314.140
0.395666,-313.759
0.395802,-313.377
0.395938,-312.996
0.396075,-312.567
0.396211,-312.138
0.396347,-311.708
0.396484,-311.279
0.396620,-310.850
0.396756,-310.373
0.396892,-384.521
0.397029,-386.000
0.397165,-387.430
0.397301,-388.861
0.397438,-390.244
0.397574,-391.579
0.397710,-392.914
0.397847,-394.201
0.397983,-395.441
0.398119,-396.681
0.398255,-397.825
0.398392,-399.017
0.398528,-400.114
0.398664,-401.163
0.398801,-402.212
0.398937,-403.261
0.399073,-404.215
0.399209,-405.169
0.399346,-406.075
0.399482,-406.981
0.399618,-407.839
0.399755,-408.649
0.399891,-409.460
0.400027,-410.271
0.400164,-410.986
0.400300,-411.749
0.400436,-412.464
0.400572,-413.179
0.400709,-413.847
0.400845,-414.515
0.400981,-415.134
0.401118,-415.754
0.401254,-460.768
0.401390,-460.625
0.401527,-460.482
0.401663,-460.291
0.401799,-460.100
0.401935,-459.814
0.402072,-459.528
0.402208,-459.242
0.402344,-458.860
0.402481,-458.479
0.402617,-458.050
0.402753,-457.621
0.402889,-457.144
0.403026,-456.619
0.403162,-456.047
0.403298,-455.475
0.403435,-454.855
0.403571,-454.187
0.403707,-453.472
0.403844,-452.757
0.403980,-451.994
0.404116,-451.231
0.404252,-450.420
0.404389,-449.562
0.404525,-448.656
0.404661,-447.750
0.404798,-446.844
0.404934,-445.843
0.405070,-444.841
0.405206,-443.792
0.405343,-442.743
0.405479,-441.647
0.405615,-304.317
0.405752,-302.792
0.405888,-301.266
0.406024,-299.740
0.406161,-298.214
0.406297,-296.688
0.406433,-295.162
0.406569,-293.684
0.406706,-292.158
0.406842,-290.632
0.406978,-289.154
0.407115,-287.676
0.407251,-286.150
0.407387,-284.672
0.407524,-283.194
0.407660,-281.715
0.407796,-280.237
0.407932,-278.759
0.408069,-277.281
0.408205,-275.850
0.408341,-274.372
0.408478,-272.894
0.408614,-271.463
0.408750,-269.985
0.408886,-268.555
0.409023,-267.124
0.409159,-265.694
0.409295,-264.263
0.409432,-262.833
0.409568,-261.402
0.409704,-259.972
0.409841,-258.541
0.409977,-153.351
0.410113,-152.302
0.410249,-151.205
0.410386,-150.156
0.410522,-149.107
0.410658,-148.058
0.410795,-147.009
0.410931,-145.960
0.411067,-144.911
0.411203,-143.862
0.411340,-142.813
0.411476,-141.764
0.411612,-140.762
0.411749,-139.713
0.411885,-138.712
0.412021,-137.663
0.412158,-136.662
0.412294,-135.612
0.412430,-134.611
0.412566,-133.610
0.412703,-132.561
0.412839,-131.559
0.412975,-130.558
0.413112,-129.557
0.413248,-128.555
0.413384,-127.554
0.413521,-126.553
0.413657,-125.551
0.413793,-124.550
0.413929,-123.596
0.414066,-122.595
0.414202,-121.593
0.414338,-42.629
0.414475,-41.819
0.414611,-41.008
0.414747,-40.245
0.414883,-39.434
0.415020,-38.671
0.415156,-37.861
0.415292,-37.098
0.415429,-36.287
0.415565,-35.524
0.415701,-34.761
0.415838,-33.951
0.415974,-33.188
0.416110,-32.377
0.416246,-31.614
0.416383,-30.851
0.416519,-30.041
0.416655,-29.278
0.416792,-28.467
0.416928,-27.704
0.417064,-26.941
0.417200,-26.131
0.417337,-25.368
0.417473,-24.557
0.417609,-23.794
0.417746,-23.031
0.417882,-22.268
0.418018,-21.458
0.418155,-20.695
0.418291,-19.932
0.418427,-19.169
0.418563,-18.406
0.418700,39.959
0.418836,40.579
0.418972,41.199
0.419109,41.866
0.419245,42.486
0.419381,43.106
0.419518,43.726
0.419654,44.346
0.419790,44.966
0.419926,45.586
0.420063,46.206
0.420199,46.825
0.420335,47.445
0.420472,48.018
0.420608,48.637
0.420744,49.257
0.420880,49.877
0.421017,50.497
0.421153,51.117
0.421289,51.737
0.421426,52.357
0.421562,52.929
0.421698,53.549
0.421835,54.169
0.421971,54.789
0.422107,55.361
0.422243,55.981
0.422380,56.553
0.422516,57.173
0.422652,57.793
0.422789,58.365
0.422925,58.985
0.423061,96.369
0.423197,96.703
0.423334,97.084
0.423470,97.418
0.423606,97.799
0.423743,98.133
0.423879,98.515
0.424015,98.896
0.424152,99.230
0.424288,99.611
0.424424,99.993
0.424560,100.327
0.424697,100.708
0.424833,101.089
0.424969,101.471
0.425106,101.852
0.425242,102.186
0.425378,102.568
0.425515,102.949
0.425651,103.331
0.425787,103.712
0.425923,104.094
0.426060,104.475
0.426196,104.856
0.426332,105.238
0.426469,105.619
0.426605,106.049
0.426741,106.430
0.426877,106.812
0.427014,107.193
0.427150,107.574
0.427286,107.956
0.427423,136.852
0.427559,137.138
0.427695,137.377
0.427832,137.663
0.427968,137.949
0.428104,138.235
0.428240,138.521
0.428377,138.807
0.428513,139.046
0.428649,139.332
0.428786,139.618
0.428922,139.856
0.429058,140.142
0.429194,140.381
0.429331,140.667
0.429467,140.905
0.429603,141.191
0.429740,141.430
0.429876,141.668
0.430012,141.907
0.430149,142.193
0.430285,142.431
0.430421,142.670
0.430557,142.908
0.430694,143.099
0.430830,143.337
0.430966,143.576
0.431103,143.766
0.431239,144.005
0.431375,144.196
0.431512,144.434
0.431648,144.625
0.431784,148.439
0.431920,148.535
0.432057,148.582
0.432193,148.678
0.432329,148.726
0.432466,148.821
0.432602,148.916
0.432738,148.964
0.432874,149.059
0.433011,149.155
0.433147,149.250
0.433283,149.345
0.433420,149.441
0.433556,149.536
0.433692,149.632
0.433829,149.727
0.433965,149.870
0.434101,149.965
0.434237,150.061
0.434374,150.156
0.434510,150.299
0.434646,150.394
0.434783,150.490
0.434919,150.633
0.435055,150.728
0.435191,150.824
0.435328,150.967
0.435464,151.062
0.435600,151.157
0.435737,151.300
0.435873,151.396
0.436009,151.539
0.436146,161.695
0.436282,161.743
0.436418,161.791
0.436554,161.839
0.436691,161.886
0.436827,161.934
0.436963,161.982
0.437100,161.982
0.437236,162.029
0.437372,162.029
0.437509,162.077
0.437645,162.077
0.437781,162.077
0.437917,162.125
0.438054,162.125
0.438190,162.125
0.438326,162.077
0.438463,162.077
0.438599,162.077
0.438735,162.029
0.438871,162.029
0.439008,161.982
0.439144,161.982
0.439280,161.934
0.439417,161.886
0.439553,161.839
0.439689,161.791
0.439826,161.743
0.439962,161.695
0.440098,161.600
0.440234,161.552
0.440371,161.457
0.440507,144.243
0.440643,144.148
0.440780,144.053
0.440916,143.909
0.441052,143.814
0.441188,143.719
0.441325,143.623
0.441461,143.576
0.441597,143.480
0.441734,143.385
0.441870,143.337
0.442006,143.242
0.442143,143.194
0.442279,143.147
0.442415,143.099
0.442551,143.051
0.442688,143.003
0.442824,142.956
0.442960,142.908
0.443097,142.860
0.443233,142.860
0.443369,142.813
0.443506,142.813
0.443642,142.765
0.443778,142.765
0.443914,142.717
0.444051,142.717
0.444187,142.717
0.444323,142.670
0.444460,142.670
0.444596,142.670
0.444732,142.670
0.444868,137.138
0.445005,136.995
0.445141,136.852
0.445277,136.709
0.445414,136.566
0.445550,136.471
0.445686,136.328
0.445823,136.185
0.445959,136.042
0.446095,135.899
0.446231,135.756
0.446368,135.612
0.446504,135.469
0.446640,135.326
0.446777,135.183
0.446913,135.040
0.447049,134.897
0.447185,134.754
0.447322,134.611
0.447458,134.468
0.447594,134.325
0.447731,134.182
0.447867,134.039
0.448003,133.896
0.448140,133.753
0.448276,133.562
0.448412,133.419
0.448548,133.276
0.448685,133.133
0.448821,132.990
0.448957,132.847
0.449094,132.704
0.449230,118.113
0.449366,117.970
0.449503,117.779
0.449639,117.636
0.449775,117.445
0.449911,117.302
0.450048,117.111
0.450184,116.968
0.450320,116.777
0.450457,116.634
0.450593,116.444
0.450729,116.301
0.450865,116.110
0.451002,115.919
0.451138,115.776
0.451274,115.585
0.451411,115.442
0.451547,115.252
0.451683,115.108
0.451820,114.918
0.451956,114.775
0.452092,114.584
0.452228,114.393
0.452365,114.250
0.452501,114.059
0.452637,113.869
0.452774,113.726
0.452910,113.535
0.453046,113.344
0.453182,113.153
0.453319,113.010
0.453455,112.820
0.453591,93.460
0.453728,93.222
0.453864,93.031
0.454000,92.793
0.454137,92.554
0.454273,92.363
0.454409,92.125
0.454545,91.934
0.454682,91.696
0.454818,91.457
0.454954,91.267
0.455091,91.028
0.455227,90.837
0.455363,90.599
0.455500,90.408
0.455636,90.170
0.455772,89.931
0.455908,89.741
0.456045,89.502
0.456181,89.312
0.456317,89.073
0.456454,88.882
0.456590,88.644
0.456726,88.453
0.456862,88.263
0.456999,88.024
0.457135,87.833
0.457271,87.595
0.457408,87.404
0.457544,87.214
0.457680,86.975
0.457817,86.784
0.457953,70.095
0.458089,69.904
0.458225,69.714
0.458362,69.523
0.458498,69.332
0.458634,69.141
0.458771,68.951
0.458907,68.760
0.459043,68.569
0.459180,68.378
0.459316,68.235
0.459452,68.045
0.459588,67.854
0.459725,67.663
0.459861,67.472
0.459997,67.329
0.460134,67.139
0.460270,66.996
0.460406,66.805
0.460542,66.662
0.460679,66.471
0.460815,66.328
0.460951,66.137
0.461088,65.994
0.461224,65.851
0.461360,65.708
0.461497,65.565
0.461633,65.422
0.461769,65.279
0.461905,65.136
0.462042,64.993
0.462178,64.850
0.462314,46.968
0.462451,46.682
0.462587,46.444
0.462723,46.158
0.462859,45.872
0.462996,45.633
0.463132,45.347
0.463268,45.109
0.463405,44.823
0.463541,44.584
0.463677,44.346
0.463814,44.060
0.463950,43.821
0.464086,43.583
0.464222,43.297
0.464359,43.058
0.464495,42.820
0.464631,42.582
0.464768,42.343
0.464904,42.105
0.465040,41.866
0.465177,41.628
0.465313,41.389
0.465449,41.151
0.465585,40.960
0.465722,40.722
0.465858,40.483
0.465994,40.293
0.466131,40.054
0.466267,39.816
0.466403,39.625
0.466539,39.387
0.466676,13.828
0.466812,13.494
0.466948,13.208
0.467085,12.875
0.467221,12.589
0.467357,12.302
0.467494,11.969
0.467630,11.683
0.467766,11.396
0.467902,11.110
0.468039,10.777
0.468175,10.490
0.468311,10.204
0.468448,9.918
0.468584,9.632
0.468720,9.346
0.468856,9.060
0.468993,8.774
0.469129,8.488
0.469265,8.249
0.469402,7.963
0.469538,7.677
0.469674,7.439
0.469811,7.153
0.469947,6.914
0.470083,6.628
0.470219,6.390
0.470356,6.151
0.470492,5.913
0.470628,5.674
0.470765,5.388
0.470901,5.198
0.471037,-10.777
0.471174,-10.967
0.471310,-11.110
0.471446,-11.253
0.471582,-11.444
0.471719,-11.587
0.471855,-11.730
0.471991,-11.873
0.472128,-12.064
0.472264,-12.207
0.472400,-12.350
0.472536,-12.493
0.472673,-12.636
0.472809,-12.779
0.472945,-12.922
0.473082,-13.065
0.473218,-13.208
0.473354,-13.351
0.473491,-13.494
0.473627,-13.638
0.473763,-13.781
0.473899,-13.876
0.474036,-14.019
0.474172,-14.162
0.474308,-14.305
0.474445,-14.400
0.474581,-14.544
0.474717,-14.687
0.474853,-14.830
0.474990,-14.925
0.475126,-15.068
0.475262,-15.211
0.475399,-26.798
0.475535,-26.894
0.475671,-26.941
0.475808,-26.989
0.475944,-27.084
0.476080,-27.132
0.476216,-27.180
0.476353,-27.275
0.476489,-27.323
0.476625,-27.370
0.476762,-27.418
0.476898,-27.514
0.477034,-27.561
0.477171,-27.609
0.477307,-27.657
0.477443,-27.704
0.477579,-27.800
0.477716,-27.847
0.477852,-27.895
0.477988,-27.943
0.478125,-27.990
0.478261,-28.038
0.478397,-28.086
0.478533,-28.181
0.478670,-28.229
0.478806,-28.276
0.478942,-28.324
0.479079,-28.372
0.479215,-28.419
0.479351,-28.467
0.479488,-28.563
0.479624,-28.610
0.479760,-30.708
0.479896,-30.851
0.480033,-30.947
0.480169,-31.042
0.480305,-31.185
0.480442,-31.328
0.480578,-31.424
0.480714,-31.567
0.480850,-31.710
0.480987,-31.853
0.481123,-31.996
0.481259,-32.187
0.481396,-32.330
0.481532,-32.473
0.481668,-32.663
0.481805,-32.854
0.481941,-32.997
0.482077,-33.188
0.482213,-33.379
0.482350,-33.569
0.482486,-33.712
0.482622,-33.903
0.482759,-34.094
0.482895,-34.332
0.483031,-34.523
0.483168,-34.714
0.483304,-34.904
0.483440,-35.095
0.483576,-35.334
0.483713,-35.524
0.483849,-35.715
0.483985,-35.954
0.484122,-47.684
0.484258,-47.684
0.484394,-47.731
0.484530,-47.779
0.484667,-47.779
0.484803,-47.827
0.484939,-47.874
0.485076,-47.874
0.485212,-47.922
0.485348,-47.970
0.485485,-47.970
0.485621,-48.018
0.485757,-48.065
0.485893,-48.065
0.486030,-48.113
0.486166,-48.161
0.486302,-48.161
0.486439,-48.208
0.486575,-48.256
0.486711,-48.256
0.486847,-48.304
0.486984,-48.351
0.487120,-48.399
0.487256,-48.399
0.487393,-48.447
0.487529,-48.494
0.487665,-48.542
0.487802,-48.590
0.487938,-48.637
0.488074,-48.685
0.488210,-48.733
0.488347,-48.780
0.488483,-56.696
0.488619,-56.744
0.488756,-56.791
0.488892,-56.839
0.489028,-56.887
0.489165,-56.934
0.489301,-56.982
0.489437,-56.982
0.489573,-57.030
0.489710,-57.077
0.489846,-57.077
0.489982,-57.125
0.490119,-57.125
0.490255,-57.173
0.490391,-57.173
0.490527,-57.173
0.490664,-57.220
0.490800,-57.220
0.490936,-57.220
0.491073,-57.220
0.491209,-57.220
0.491345,-57.268
0.491482,-57.268
0.491618,-57.268
0.491754,-57.268
0.491890,-57.268
0.492027,-57.220
0.492163,-57.220
0.492299,-57.220
0.492436,-57.220
0.492572,-57.220
0.492708,-57.173
0.492844,-58.460
0.492981,-58.508
0.493117,-58.556
0.493253,-58.603
0.493390,-58.651
0.493526,-58.651
0.493662,-58.699
0.493799,-58.746
0.493935,-58.794
0.494071,-58.842
0.494207,-58.842
0.494344,-58.889
0.494480,-58.937
0.494616,-58.985
0.494753,-58.985
0.494889,-59.032
0.495025,-59.080
0.495162,-59.128
0.495298,-59.128
0.495434,-59.175
0.495570,-59.223
0.495707,-59.223
0.495843,-59.271
0.495979,-59.319
0.496116,-59.319
0.496252,-59.366
0.496388,-59.414
0.496524,-59.414
0.496661,-59.462
0.496797,-59.462
0.496933,-59.509
0.497070,-59.509
0.497206,-65.804
0.497342,-65.947
0.497479,-66.042
0.497615,-66.137
0.497751,-66.280
0.497887,-66.376
0.498024,-66.471
0.498160,-66.566
0.498296,-66.662
0.498433,-66.757
0.498569,-66.853
0.498705,-66.948
0.498841,-67.043
0.498978,-67.139
0.499114,-67.234
0.499250,-67.329
0.499387,-67.377
0.499523,-67.472
0.499659,-67.520
0.499796,-67.616
0.499932,-67.663
0.500068,-67.711
0.500204,-67.759
0.500341,-67.806
0.500477,-67.854
0.500613,-67.902
0.500750,-67.949
0.500886,-67.997
0.501022,-67.997
0.501159,-68.045
0.501295,-68.045
0.501431,-68.045
0.501567,-56.171
0.501704,-56.028
0.501840,-55.838
0.501976,-55.695
0.502113,-55.504
0.502249,-55.361
0.502385,-55.170
0.502521,-55.027
0.502658,-54.836
0.502794,-54.693
0.502930,-54.550
0.503067,-54.359
0.503203,-54.216
0.503339,-54.073
0.503476,-53.930
0.503612,-53.787
0.503748,-53.596
0.503884,-53.453
0.504021,-53.310
0.504157,-53.167
0.504293,-53.024
0.504430,-52.881
0.504566,-52.738
0.504702,-52.595
0.504838,-52.452
0.504975,-52.357
0.505111,-52.214
0.505247,-52.071
0.505384,-51.928
0.505520,-51.832
0.505656,-51.689
0.505793,-51.546
0.505929,-47.731
0.506065,-47.731
0.506201,-47.731
0.506338,-47.731
0.506474,-47.731
0.506610,-47.731
0.506747,-47.684
0.506883,-47.684
0.507019,-47.684
0.507156,-47.684
0.507292,-47.636
0.507428,-47.636
0.507564,-47.636
0.507701,-47.588
0.507837,-47.588
0.507973,-47.541
0.508110,-47.541
0.508246,-47.493
0.508382,-47.493
0.508518,-47.445
0.508655,-47.398
0.508791,-47.398
0.508927,-47.350
0.509064,-47.302
0.509200,-47.255
0.509336,-47.207
0.509473,-47.159
0.509609,-47.112
0.509745,-47.112
0.509881,-47.064
0.510018,-46.968
0.510154,-46.921
0.510290,-45.252
0.510427,-45.252
0.510563,-45.300
0.510699,-45.300
0.510835,-45.300
0.510972,-45.347
0.511108,-45.347
0.511244,-45.347
0.511381,-45.347
0.511517,-45.347
0.511653,-45.395
0.511790,-45.395
0.511926,-45.395
0.512062,-45.347
0.512198,-45.347
0.512335,-45.347
0.512471,-45.347
0.512607,-45.347
0.512744,-45.347
0.512880,-45.300
0.513016,-45.300
0.513153,-45.252
0.513289,-45.252
0.513425,-45.204
0.513561,-45.156
0.513698,-45.156
0.513834,-45.109
0.513970,-45.061
0.514107,-45.013
0.514243,-44.966
0.514379,-44.918
0.514515,-44.870
0.514652,-37.050
0.514788,-37.003
0.514924,-36.955
0.515061,-36.907
0.515197,-36.907
0.515333,-36.860
0.515470,-36.812
0.515606,-36.764
0.515742,-36.764
0.515878,-36.716
0.516015,-36.716
0.516151,-36.669
0.516287,-36.621
0.516424,-36.621
0.516560,-36.573
0.516696,-36.573
0.516832,-36.526
0.516969,-36.526
0.517105,-36.478
0.517241,-36.478
0.517378,-36.430
0.517514,-36.430
0.517650,-36.383
0.517787,-36.383
0.517923,-36.383
0.518059,-36.335
0.518195,-36.335
0.518332,-36.335
0.518468,-36.287
0.518604,-36.287
0.518741,-36.287
0.518877,-36.287
0.519013,-31.137
0.519150,-31.042
0.519286,-30.947
0.519422,-30.899
0.519558,-30.804
0.519695,-30.708
0.519831,-30.613
0.519967,-30.565
0.520104,-30.470
0.520240,-30.375
0.520376,-30.327
0.520512,-30.231
0.520649,-30.184
0.520785,-30.088
0.520921,-30.041
0.521058,-29.945
0.521194,-29.898
0.521330,-29.850
0.521467,-29.755
0.521603,-29.707
0.521739,-29.659
0.521875,-29.612
0.522012,-29.564
0.522148,-29.469
0.522284,-29.421
0.522421,-29.373
0.522557,-29.325
0.522693,-29.278
0.522829,-29.230
0.522966,-29.182
0.523102,-29.135
0.523238,-29.087
0.523375,-27.418
0.523511,-27.370
0.523647,-27.275
0.523784,-27.227
0.523920,-27.132
0.524056,-27.084
0.524192,-26.989
0.524329,-26.941
0.524465,-26.846
0.524601,-26.751
0.524738,-26.703
0.524874,-26.608
0.525010,-26.512
0.525147,-26.464
0.525283,-26.369
0.525419,-26.274
0.525555,-26.178
0.525692,-26.083
0.525828,-25.988
0.525964,-25.892
0.526101,-25.797
0.526237,-25.702
0.526373,-25.606
0.526509,-25.511
0.526646,-25.415
0.526782,-25.320
0.526918,-25.225
0.527055,-25.129
0.527191,-25.034
0.527327,-24.939
0.527464,-24.843
0.527600,-24.748
0.527736,-16.594
0.527872,-16.499
0.528009,-16.451
0.528145,-16.356
0.528281,-16.260
0.528418,-16.165
0.528554,-16.069
0.528690,-15.974
0.528826,-15.879
0.528963,-15.831
0.529099,-15.736
0.529235,-15.640
0.529372,-15.545
0.529508,-15.450
0.529644,-15.402
0.529781,-15.306
0.529917,-15.211
0.530053,-15.116
0.530189,-15.020
0.530326,-14.925
0.530462,-14.830
0.530598,-14.734
0.530735,-14.639
0.530871,-14.544
0.531007,-14.448
0.531144,-14.353
0.531280,-14.257
0.531416,-14.162
0.531552,-14.067
0.531689,-13.971
0.531825,-13.924
0.531961,-13.828
0.532098,-9.394
0.532234,-9.346
0.532370,-9.346
0.532506,-9.298
0.532643,-9.298
0.532779,-9.251
0.532915,-9.203
0.533052,-9.203
0.533188,-9.155
0.533324,-9.108
0.533461,-9.060
0.533597,-8.965
0.533733,-8.917
0.533869,-8.869
0.534006,-8.774
0.534142,-8.726
0.534278,-8.631
0.534415,-8.535
0.534551,-8.440
0.534687,-8.345
0.534823,-8.249
0.534960,-8.154
0.535096,-8.011
0.535232,-7.915
0.535369,-7.820
0.535505,-7.677
0.535641,-7.534
0.535778,-7.439
0.535914,-7.296
0.536050,-7.153
0.536186,-7.010
0.536323,-6.866
0.536459,-2.909
0.536595,-2.861
0.536732,-2.813
0.536868,-2.718
0.537004,-2.670
0.537141,-2.575
0.537277,-2.480
0.537413,-2.384
0.537549,-2.289
0.537686,-2.241
0.537822,-2.098
0.537958,-2.003
0.538095,-1.907
0.538231,-1.812
0.538367,-1.669
0.538503,-1.574
0.538640,-1.478
0.538776,-1.335
0.538912,-1.240
0.539049,-1.097
0.539185,-0.954
0.539321,-0.858
0.539458,-0.715
0.539594,-0.620
0.539730,-0.477
0.539866,-0.334
0.540003,-0.238
0.540139,-0.095
0.540275,0.000
0.540412,0.048
0.540548,0.143
0.540684,0.238
0.540820,6.628
0.540957,6.676
0.541093,6.723
0.541229,6.723
0.541366,6.723
0.541502,6.723
0.541638,6.723
0.541775,6.676
0.541911,6.628
0.542047,6.580
0.542183,6.533
0.542320,6.437
0.542456,6.342
0.542592,6.247
0.542729,6.151
0.542865,6.008
0.543001,5.913
0.543138,5.770
0.543274,5.627
0.543410,5.484
0.543546,5.388
0.543683,5.245
0.543819,5.102
0.543955,4.959
0.544092,4.816
0.544228,4.673
0.544364,4.578
0.544500,4.435
0.544637,4.339
0.544773,4.244
0.544909,4.101
0.545046,4.005
0.545182,12.445
0.545318,12.445
0.545455,12.445
0.545591,12.493
0.545727,12.493
0.545863,12.493
0.546000,12.493
0.546136,12.445
0.546272,12.445
0.546409,12.445
0.546545,12.398
0.546681,12.398
0.546818,12.350
0.546954,12.350
0.547090,12.302
0.547226,12.255
0.547363,12.207
0.547499,12.159
0.547635,12.112
0.547772,12.064
0.547908,12.016
0.548044,11.969
0.548180,11.921
0.548317,11.826
0.548453,11.778
0.548589,11.730
0.548726,11.635
0.548862,11.587
0.548998,11.492
0.549135,11.444
0.549271,11.349
0.549407,11.301
0.549543,8.488
0.549680,8.535
0.549816,8.583
0.549952,8.631
0.550089,8.678
0.550225,8.726
0.550361,8.774
0.550497,8.821
0.550634,8.869
0.550770,8.965
0.550906,9.012
0.551043,9.060
0.551179,9.108
0.551315,9.155
0.551452,9.203
0.551588,9.298
0.551724,9.346
0.551860,9.394
0.551997,9.441
0.552133,9.489
0.552269,9.584
0.552406,9.632
0.552542,9.680
0.552678,9.727
0.552815,9.823
0.552951,9.871
0.553087,9.918
0.553223,9.966
0.553360,10.061
0.553496,10.109
0.553632,10.157
0.553769,10.252
0.553905,13.351
0.554041,13.304
0.554177,13.256
0.554314,13.208
0.554450,13.113
0.554586,13.018
0.554723,12.922
0.554859,12.779
0.554995,12.684
0.555132,12.541
0.555268,12.398
0.555404,12.207
0.555540,12.016
0.555677,11.826
0.555813,11.635
0.555949,11.444
0.556086,11.253
0.556222,11.015
0.556358,10.824
0.556494,10.586
0.556631,10.395
0.556767,10.157
0.556903,9.966
0.557040,9.775
0.557176,9.537
0.557312,9.346
0.557449,9.155
0.557585,8.965
0.557721,8.774
0.557857,8.583
0.557994,8.392
0.558130,8.249
0.558266,19.503
0.558403,19.646
0.558539,19.741
0.558675,19.884
0.558812,19.979
0.558948,20.075
0.559084,20.170
0.559220,20.266
0.559357,20.361
0.559493,20.456
0.559629,20.504
0.559766,20.599
0.559902,20.647
0.560038,20.695
0.560174,20.742
0.560311,20.790
0.560447,20.790
0.560583,20.838
0.560720,20.838
0.560856,20.790
0.560992,20.790
0.561129,20.742
0.561265,20.695
0.561401,20.599
0.561537,20.552
0.561674,20.409
0.561810,20.313
0.561946,20.170
0.562083,20.027
0.562219,19.884
0.562355,19.693
0.562491,19.550
0.562628,20.599
0.562764,20.742
0.562900,20.885
0.563037,21.029
0.563173,21.124
0.563309,21.267
0.563446,21.410
0.563582,21.505
0.563718,21.648
0.563854,21.744
0.563991,21.839
0.564127,21.982
0.564263,22.078
0.564400,22.173
0.564536,22.268
0.564672,22.316
0.564809,22.411
0.564945,22.507
0.565081,22.554
0.565217,22.602
0.565354,22.697
0.565490,22.745
0.565626,22.793
0.565763,22.840
0.565899,22.888
0.566035,22.936
0.566171,22.936
0.566308,22.984
0.566444,22.984
0.566580,23.031
0.566717,23.031
0.566853,23.031
0.566989,13.208
0.567126,12.970
0.567262,12.779
0.567398,12.589
0.567534,12.398
0.567671,12.207
0.567807,12.016
0.567943,11.873
0.568080,11.730
0.568216,11.587
0.568352,11.444
0.568488,11.349
0.568625,11.253
0.568761,11.158
0.568897,11.063
0.569034,11.015
0.569170,10.967
0.569306,10.920
0.569443,10.872
0.569579,10.872
0.569715,10.824
0.569851,10.824
0.569988,10.872
0.570124,10.872
0.570260,10.920
0.570397,10.967
0.570533,11.015
0.570669,11.110
0.570806,11.206
0.570942,11.253
0.571078,11.396
0.571214,11.492
0.571351,22.411
0.571487,22.268
0.571623,22.078
0.571760,21.887
0.571896,21.648
0.572032,21.458
0.572168,21.219
0.572305,20.981
0.572441,20.742
0.572577,20.504
0.572714,20.218
0.572850,19.979
0.572986,19.693
0.573123,19.455
0.573259,19.169
0.573395,18.930
0.573531,18.692
0.573668,18.406
0.573804,18.167
0.573940,17.929
0.574077,17.691
0.574213,17.452
0.574349,17.214
0.574485,17.023
0.574622,16.785
0.574758,16.594
0.574894,16.403
0.575031,16.212
0.575167,16.022
0.575303,15.879
0.575440,15.736
0.575576,15.593
0.575712,22.507
0.575848,22.507
0.575985,22.507
0.576121,22.554
0.576257,22.554
0.576394,22.554
0.576530,22.507
0.576666,22.507
0.576803,22.507
0.576939,22.459
0.577075,22.459
0.577211,22.411
0.577348,22.364
0.577484,22.364
0.577620,22.316
0.577757,22.268
0.577893,22.221
0.578029,22.173
0.578165,22.078
0.578302,22.030
0.578438,21.982
0.578574,21.935
0.578711,21.839
0.578847,21.791
0.578983,21.696
0.579120,21.601
0.579256,21.553
0.579392,21.458
0.579528,21.362
0.579665,21.315
0.579801,21.219
0.579937,21.124
0.580074,8.774
0.580210,8.821
0.580346,8.869
0.580482,8.965
0.580619,9.060
0.580755,9.155
0.580891,9.251
0.581028,9.346
0.581164,9.489
0.581300,9.584
0.581437,9.727
0.581573,9.871
0.581709,10.014
0.581845,10.204
0.581982,10.347
0.582118,10.490
0.582254,10.681
0.582391,10.872
0.582527,11.063
0.582663,11.253
0.582800,11.444
0.582936,11.635
0.583072,11.826
0.583208,12.016
0.583345,12.207
0.583481,12.445
0.583617,12.636
0.583754,12.875
0.583890,13.065
0.584026,13.256
0.584162,13.494
0.584299,13.685
0.584435,12.636
0.584571,12.445
0.584708,12.255
0.584844,12.064
0.584980,11.921
0.585117,11.778
0.585253,11.635
0.585389,11.492
0.585525,11.349
0.585662,11.253
0.585798,11.158
0.585934,11.063
0.586071,11.015
0.586207,10.920
0.586343,10.872
0.586479,10.824
0.586616,10.777
0.586752,10.777
0.586888,10.777
0.587025,10.777
0.587161,10.777
0.587297,10.777
0.587434,10.777
0.587570,10.824
0.587706,10.872
0.587842,10.920
0.587979,10.967
0.588115,11.063
0.588251,11.110
0.588388,11.206
0.588524,11.301
0.588660,11.396
0.588797,16.642
0.588933,16.546
0.589069,16.451
0.589205,16.356
0.589342,16.260
0.589478,16.165
0.589614,16.069
0.589751,15.926
0.589887,15.831
0.590023,15.736
0.590159,15.640
0.590296,15.545
0.590432,15.402
0.590568,15.306
0.590705,15.211
0.590841,15.068
0.590977,14.973
0.591114,14.877
0.591250,14.734
0.591386,14.639
0.591522,14.496
0.591659,14.400
0.591795,14.305
0.591931,14.162
0.592068,14.067
0.592204,13.971
0.592340,13.828
0.592476,13.733
0.592613,13.590
0.592749,13.494
0.592885,13.399
0.593022,13.256
0.593158,7.153
0.593294,7.343
0.593431,7.582
0.593567,7.772
0.593703,7.963
0.593839,8.202
0.593976,8.392
0.594112,8.583
0.594248,8.821
0.594385,9.012
0.594521,9.203
0.594657,9.394
0.594794,9.584
0.594930,9.823
0.595066,10.014
0.595202,10.204
0.595339,10.395
0.595475,10.586
0.595611,10.729
0.595748,10.920
0.595884,11.110
0.596020,11.253
0.596156,11.444
0.596293,11.587
0.596429,11.730
0.596565,11.921
0.596702,12.064
0.596838,12.207
0.596974,12.350
0.597111,12.445
0.597247,12.589
0.597383,12.732
0.597519,4.148
0.597656,4.148
0.597792,4.196
0.597928,4.244
0.598065,4.339
0.598201,4.387
0.598337,4.482
0.598473,4.530
0.598610,4.625
0.598746,4.721
0.598882,4.816
0.599019,4.911
0.599155,5.007
0.599291,5.150
0.599428,5.245
0.599564,5.388
0.599700,5.484
0.599836,5.627
0.599973,5.722
0.600109,5.865
0.600245,6.008
0.600382,6.151
0.600518,6.247
0.600654,6.390
0.600791,6.533
0.600927,6.676
0.601063,6.819
0.601199,6.962
0.601336,7.105
0.601472,7.248
0.601608,7.343
0.601745,7.486
0.601881,2.146
0.602017,2.050
0.602153,1.907
0.602290,1.812
0.602426,1.717
0.602562,1.621
0.602699,1.574
0.602835,1.526
0.602971,1.431
0.603108,1.431
0.603244,1.383
0.603380,1.335
0.603516,1.335
0.603653,1.335
0.603789,1.335
0.603925,1.335
0.604062,1.383
0.604198,1.383
0.604334,1.431
0.604470,1.478
0.604607,1.526
0.604743,1.574
0.604879,1.621
0.605016,1.717
0.605152,1.812
0.605288,1.860
0.605425,1.955
0.605561,2.050
0.605697,2.146
0.605833,2.289
0.605970,2.384
0.606106,2.480
0.606242,3.624
0.606379,3.386
0.606515,3.099
0.606651,2.861
0.606788,2.623
0.606924,2.337
0.607060,2.098
0.607196,1.860
0.607333,1.621
0.607469,1.431
0.607605,1.192
0.607742,1.001
0.607878,0.763
0.608014,0.572
0.608150,0.381
0.608287,0.238
0.608423,0.048
0.608559,-0.048
0.608696,-0.191
0.608832,-0.334
0.608968,-0.429
0.609105,-0.572
0.609241,-0.668
0.609377,-0.763
0.609513,-0.858
0.609650,-0.906
0.609786,-0.954
0.609922,-1.001
0.610059,-1.049
0.610195,-1.097
0.610331,-1.144
0.610467,-1.144
0.610604,5.388
0.610740,5.293
0.610876,5.150
0.611013,5.007
0.611149,4.864
0.611285,4.721
0.611422,4.530
0.611558,4.387
0.611694,4.148
0.611830,3.958
0.611967,3.767
0.612103,3.529
0.612239,3.290
0.612376,3.052
0.612512,2.813
0.612648,2.575
0.612785,2.337
0.612921,2.098
0.613057,1.860
0.613193,1.621
0.613330,1.431
0.613466,1.192
0.613602,0.954
0.613739,0.763
0.613875,0.572
0.614011,0.381
0.614147,0.238
0.614284,0.048
0.614420,-0.048
0.614556,-0.143
0.614693,-0.238
0.614829,-0.334
0.614965,5.293
0.615102,5.054
0.615238,4.768
0.615374,4.530
0.615510,4.292
0.615647,4.005
0.615783,3.767
0.615919,3.481
0.616056,3.242
0.616192,2.956
0.616328,2.718
0.616464,2.432
0.616601,2.193
0.616737,1.907
0.616873,1.669
0.617010,1.383
0.617146,1.144
0.617282,0.858
0.617419,0.620
0.617555,0.381
0.617691,0.143
0.617827,-0.095
0.617964,-0.334
0.618100,-0.572
0.618236,-0.811
0.618373,-1.001
0.618509,-1.240
0.618645,-1.478
0.618782,-1.669
0.618918,-1.907
0.619054,-2.098
0.619190,-2.337
0.619327,-3.386
0.619463,-3.338
0.619599,-3.242
0.619736,-3.195
0.619872,-3.147
0.620008,-3.052
0.620144,-3.004
0.620281,-2.956
0.620417,-2.861
0.620553,-2.813
0.620690,-2.766
0.620826,-2.718
0.620962,-2.670
0.621099,-2.623
0.621235,-2.527
0.621371,-2.480
0.621507,-2.432
0.621644,-2.384
0.621780,-2.384
0.621916,-2.337
0.622053,-2.289
0.622189,-2.241
0.622325,-2.193
0.622461,-2.146
0.622598,-2.146
0.622734,-2.098
0.622870,-2.050
0.623007,-2.050
0.623143,-2.003
0.623279,-2.003
0.623416,-1.955
0.623552,-1.955
0.623688,-3.624
0.623824,-3.624
0.623961,-3.672
0.624097,-3.672
0.624233,-3.719
0.624370,-3.719
0.624506,-3.719
0.624642,-3.767
0.624779,-3.767
0.624915,-3.815
0.625051,-3.815
0.625187,-3.862
0.625324,-3.862
0.625460,-3.862
0.625596,-3.910
0.625733,-3.910
0.625869,-3.910
0.626005,-3.958
0.626141,-3.958
0.626278,-3.958
0.626414,-4.005
0.626550,-4.005
0.626687,-4.005
0.626823,-4.053
0.626959,-4.053
0.627096,-4.053
0.627232,-4.053
0.627368,-4.101
0.627504,-4.101
0.627641,-4.101
0.627777,-4.101
0.627913,-4.101
0.628050,-4.435
0.628186,-4.435
0.628322,-4.435
0.628458,-4.435
0.628595,-4.435
0.628731,-4.435
0.628867,-4.435
0.629004,-4.482
0.629140,-4.482
0.629276,-4.482
0.629413,-4.482
0.629549,-4.482
0.629685,-4.482
0.629821,-4.482
0.629958,-4.482
0.630094,-4.530
0.630230,-4.530
0.630367,-4.530
0.630503,-4.530
0.630639,-4.530
0.630776,-4.530
0.630912,-4.530
0.631048,-4.530
0.631184,-4.578
0.631321,-4.578
0.631457,-4.578
0.631593,-4.578
0.631730,-4.578
0.631866,-4.578
0.632002,-4.578
0.632138,-4.625
0.632275,-4.625
0.632411,-5.150
0.632547,-5.150
0.632684,-5.150
0.632820,-5.150
0.632956,-5.150
0.633093,-5.150
0.633229,-5.150
0.633365,-5.150
0.633501,-5.150
0.633638,-5.150
0.633774,-5.198
0.633910,-5.198
0.634047,-5.198
0.634183,-5.198
0.634319,-5.198
0.634455,-5.198
0.634592,-5.198
0.634728,-5.198
0.634864,-5.198
0.635001,-5.198
0.635137,-5.198
0.635273,-5.198
0.635410,-5.198
0.635546,-5.245
0.635682,-5.245
0.635818,-5.245
0.635955,-5.245
0.636091,-5.245
0.636227,-5.245
0.636364,-5.245
0.636500,-5.245
0.636636,-5.245
0.636773,-5.436
0.636909,-5.436
0.637045,-5.436
0.637181,-5.484
0.637318,-5.484
0.637454,-5.484
0.637590,-5.484
0.637727,-5.484
0.637863,-5.484
0.637999,-5.484
0.638135,-5.484
0.638272,-5.484
0.638408,-5.484
0.638544,-5.484
0.638681,-5.484
0.638817,-5.484
0.638953,-5.484
0.639090,-5.484
0.639226,-5.484
0.639362,-5.484
0.639498,-5.484
0.639635,-5.484
0.639771,-5.484
0.639907,-5.484
0.640044,-5.484
0.640180,-5.484
0.640316,-5.484
0.640453,-5.484
0.640589,-5.484
0.640725,-5.484
0.640861,-5.484
0.640998,-5.484
0.641134,-5.579
0.641270,-5.579
0.641407,-5.579
0.641543,-5.579
0.641679,-5.579
0.641815,-5.579
0.641952,-5.579
0.642088,-5.579
0.642224,-5.579
0.642361,-5.531
0.642497,-5.531
0.642633,-5.531
0.642770,-5.531
0.642906,-5.531
0.643042,-5.531
0.643178,-5.531
0.643315,-5.531
0.643451,-5.531
0.643587,-5.531
0.643724,-5.531
0.643860,-5.531
0.643996,-5.531
0.644132,-5.531
0.644269,-5.531
0.644405,-5.531
0.644541,-5.531
0.644678,-5.531
0.644814,-5.531
0.644950,-5.531
0.645087,-5.531
0.645223,-5.531
0.645359,-5.531
0.645495,-5.388
0.645632,-5.388
0.645768,-5.388
0.645904,-5.388
0.646041,-5.388
0.646177,-5.388
0.646313,-5.388
0.646450,-5.388
0.646586,-5.388
0.646722,-5.388
0.646858,-5.388
0.646995,-5.388
0.647131,-5.388
0.647267,-5.388
0.647404,-5.388
0.647540,-5.388
0.647676,-5.388
0.647812,-5.388
0.647949,-5.388
0.648085,-5.388
0.648221,-5.341
0.648358,-5.341
0.648494,-5.341
0.648630,-5.341
0.648767,-5.341
0.648903,-5.341
0.649039,-5.341
0.649175,-5.341
0.649312,-5.341
0.649448,-5.341
0.649584,-5.341
0.649721,-5.341
0.649857,-5.102
0.649993,-5.102
0.650129,-5.102
0.650266,-5.102
0.650402,-5.102
0.650538,-5.102
0.650675,-5.054
0.650811,-5.054
0.650947,-5.054
0.651084,-5.054
0.651220,-5.054
0.651356,-5.054
0.651492,-5.054
0.651629,-5.054
0.651765,-5.054
0.651901,-5.054
0.652038,-5.054
0.652174,-5.054
0.652310,-5.054
0.652447,-5.007
0.652583,-5.007
0.652719,-5.007
0.652855,-5.007
0.652992,-5.007
0.653128,-5.007
0.653264,-5.007
0.653401,-5.007
0.653537,-5.007
0.653673,-5.007
0.653809,-5.007
0.653946,-5.007
0.654082,-4.959
0.654218,-4.625
0.654355,-4.625
0.654491,-4.625
0.654627,-4.625
0.654764,-4.625
0.654900,-4.578
0.655036,-4.578
0.655172,-4.578
0.655309,-4.578
0.655445,-4.578
0.655581,-4.578
0.655718,-4.578
0.655854,-4.578
0.655990,-4.578
0.656126,-4.578
0.656263,-4.578
0.656399,-4.530
0.656535,-4.530
0.656672,-4.530
0.656808,-4.530
0.656944,-4.530
0.657081,-4.530
0.657217,-4.530
0.657353,-4.530
0.657489,-4.530
0.657626,-4.530
0.657762,-4.482
0.657898,-4.482
0.658035,-4.482
0.658171,-4.482
0.658307,-4.482
0.658444,-4.482
0.658580,-4.053
0.658716,-4.053
0.658852,-4.053
0.658989,-4.053
0.659125,-4.005
0.659261,-4.005
0.659398,-4.005
0.659534,-4.005
0.659670,-4.005
0.659806,-4.005
0.659943,-4.005
0.660079,-4.005
0.660215,-4.005
0.660352,-3.958
0.660488,-3.958
0.660624,-3.958
0.660761,-3.958
0.660897,-3.958
0.661033,-3.958
0.661169,-3.958
0.661306,-3.958
0.661442,-3.958
0.661578,-3.910
0.661715,-3.910
0.661851,-3.910
0.661987,-3.910
0.662123,-3.910
0.662260,-3.910
0.662396,-3.910
0.662532,-3.910
0.662669,-3.910
0.662805,-3.862
0.662941,-3.386
0.663078,-3.386
0.663214,-3.386
0.663350,-3.386
0.663486,-3.386
0.663623,-3.386
0.663759,-3.338
0.663895,-3.338
0.664032,-3.338
0.664168,-3.338
0.664304,-3.338
0.664441,-3.338
0.664577,-3.338
0.664713,-3.338
0.664849,-3.290
0.664986,-3.290
0.665122,-3.290
0.665258,-3.290
0.665395,-3.290
0.665531,-3.290
0.665667,-3.290
0.665803,-3.290
0.665940,-3.242
0.666076,-3.242
0.666212,-3.242
0.666349,-3.242
0.666485,-3.242
0.666621,-3.242
0.666758,-3.242
0.666894,-3.242
0.667030,-3.195
0.667166,-3.195
0.667303,-2.718
0.667439,-2.670
0.667575,-2.670
0.667712,-2.670
0.667848,-2.670
0.667984,-2.670
0.668120,-2.670
0.668257,-2.670
0.668393,-2.670
0.668529,-2.670
0.668666,-2.623
0.668802,-2.623
0.668938,-2.623
0.669075,-2.623
0.669211,-2.623
0.669347,-2.623
0.669483,-2.623
0.669620,-2.623
0.669756,-2.575
0.669892,-2.575
0.670029,-2.575
0.670165,-2.575
0.670301,-2.575
0.670438,-2.575
0.670574,-2.575
0.670710,-2.575
0.670846,-2.575
0.670983,-2.527
0.671119,-2.527
0.671255,-2.527
0.671392,-2.527
0.671528,-2.527
0.671664,-2.050
0.671800,-2.003
0.671937,-2.003
0.672073,-2.003
0.672209,-2.003
0.672346,-2.003
0.672482,-2.003
0.672618,-2.003
0.672755,-2.003
0.672891,-1.955
0.673027,-1.955
0.673163,-1.955
0.673300,-1.955
0.673436,-1.955
0.673572,-1.955
0.673709,-1.955
0.673845,-1.955
0.673981,-1.907
0.674117,-1.907
0.674254,-1.907
0.674390,-1.907
0.674526,-1.907
0.674663,-1.907
0.674799,-1.907
0.674935,-1.907
0.675072,-1.860
0.675208,-1.860
0.675344,-1.860
0.675480,-1.860
0.675617,-1.860
0.675753,-1.860
0.675889,-1.860
0.676026,-1.335
0.676162,-1.335
0.676298,-1.335
0.676435,-1.335
0.676571,-1.335
0.676707,-1.335
0.676843,-1.335
0.676980,-1.335
0.677116,-1.335
0.677252,-1.287
0.677389,-1.287
0.677525,-1.287
0.677661,-1.287
0.677797,-1.287
0.677934,-1.287
0.678070,-1.287
0.678206,-1.287
0.678343,-1.287
0.678479,-1.240
0.678615,-1.240
0.678752,-1.240
0.678888,-1.240
0.679024,-1.240
0.679160,-1.240
0.679297,-1.240
0.679433,-1.240
0.679569,-1.192
0.679706,-1.192
0.679842,-1.192
0.679978,-1.192
0.680114,-1.192
0.680251,-1.192
0.680387,-0.715
0.680523,-0.715
0.680660,-0.715
0.680796,-0.715
0.680932,-0.715
0.681069,-0.715
0.681205,-0.715
0.681341,-0.715
0.681477,-0.668
0.681614,-0.668
0.681750,-0.668
0.681886,-0.668
0.682023,-0.668
0.682159,-0.668
0.682295,-0.668
0.682432,-0.668
0.682568,-0.668
0.682704,-0.620
0.682840,-0.620
0.682977,-0.620
0.683113,-0.620
0.683249,-0.620
0.683386,-0.620
0.683522,-0.620
0.683658,-0.620
0.683794,-0.620
0.683931,-0.620
0.684067,-0.572
0.684203,-0.572
0.684340,-0.572
0.684476,-0.572
0.684612,-0.572
0.684749,-0.143
0.684885,-0.143
0.685021,-0.143
0.685157,-0.143
0.685294,-0.143
0.685430,-0.143
0.685566,-0.143
0.685703,-0.143
0.685839,-0.143
0.685975,-0.095
0.686111,-0.095
0.686248,-0.095
0.686384,-0.095
0.686520,-0.095
0.686657,-0.095
0.686793,-0.095
0.686929,-0.095
0.687066,-0.095
0.687202,-0.095
0.687338,-0.048
0.687474,-0.048
0.687611,-0.048
0.687747,-0.048
0.687883,-0.048
0.688020,-0.048
0.688156,-0.048
0.688292,-0.048
0.688429,-0.048
0.688565,-0.048
0.688701,-0.048
0.688837,0.000
0.688974,0.000
0.689110,0.286
0.689246,0.286
0.689383,0.286
0.689519,0.286
0.689655,0.286
0.689791,0.334
0.689928,0.334
0.690064,0.334
0.690200,0.334
0.690337,0.334
0.690473,0.334
0.690609,0.334
0.690746,0.334
0.690882,0.334
0.691018,0.334
0.691154,0.334
0.691291,0.334
0.691427,0.334
0.691563,0.381
0.691700,0.381
0.691836,0.381
0.691972,0.381
0.692108,0.381
0.692245,0.381
0.692381,0.381
0.692517,0.381
0.692654,0.381
0.692790,0.381
0.692926,0.381
0.693063,0.381
0.693199,0.429
0.693335,0.429
0.693471,0.715
0.693608,0.715
0.693744,0.715
0.693880,0.715
0.694017,0.715
0.694153,0.715
0.694289,0.715
0.694426,0.715
0.694562,0.715
0.694698,0.715
0.694834,0.715
0.694971,0.715
0.695107,0.715
0.695243,0.763
0.695380,0.763
0.695516,0.763
0.695652,0.763
0.695788,0.763
0.695925,0.763
0.696061,0.763
0.696197,0.763
0.696334,0.763
0.696470,0.763
0.696606,0.763
0.696743,0.763
0.696879,0.763
0.697015,0.763
0.697151,0.763
0.697288,0.763
0.697424,0.811
0.697560,0.811
0.697697,0.811
0.697833,1.001
0.697969,1.049
0.698105,1.049
0.698242,1.049
0.698378,1.049
0.698514,1.049
0.698651,1.049
0.698787,1.049
0.698923,1.049
0.699060,1.049
0.699196,1.049
0.699332,1.049
0.699468,1.049
0.699605,1.049
0.699741,1.049
0.699877,1.049
0.700014,1.049
0.700150,1.049
0.700286,1.049
0.700423,1.049
0.700559,1.049
0.700695,1.049
0.700831,1.097
0.700968,1.097
0.701104,1.097
0.701240,1.097
0.701377,1.097
0.701513,1.097
0.701649,1.097
0.701785,1.097
0.701922,1.097
0.702058,1.097
0.702194,1.240
0.702331,1.240
0.702467,1.287
0.702603,1.287
0.702740,1.287
0.702876,1.287
0.703012,1.287
0.703148,1.287
0.703285,1.287
0.703421,1.287
0.703557,1.287
0.703694,1.287
0.703830,1.287
0.703966,1.287
0.704102,1.287
0.704239,1.287
0.704375,1.287
0.704511,1.287
0.704648,1.287
0.704784,1.287
0.704920,1.287
0.705057,1.287
0.705193,1.287
0.705329,1.287
0.705465,1.287
0.705602,1.287
0.705738,1.287
0.705874,1.287
0.706011,1.287
0.706147,1.287
0.706283,1.287
0.706420,1.287
0.706556,1.431
0.706692,1.431
0.706828,1.431
0.706965,1.431
0.707101,1.431
0.707237,1.431
0.707374,1.431
0.707510,1.431
0.707646,1.431
0.707782,1.431
0.707919,1.431
0.708055,1.431
0.708191,1.431
0.708328,1.431
0.708464,1.431
0.708600,1.431
0.708737,1.431
0.708873,1.431
0.709009,1.431
0.709145,1.431
0.709282,1.431
0.709418,1.431
0.709554,1.431
0.709691,1.431
0.709827,1.431
0.709963,1.431
0.710099,1.431
0.710236,1.431
0.710372,1.431
0.710508,1.431
0.710645,1.431
0.710781,1.431
0.710917,1.478
0.711054,1.478
0.711190,1.478
0.711326,1.478
0.711462,1.478
0.711599,1.478
0.711735,1.478
0.711871,1.478
0.712008,1.478
0.712144,1.478
0.712280,1.478
0.712417,1.478
0.712553,1.526
0.712689,1.526
0.712825,1.526
0.712962,1.526
0.713098,1.526
0.713234,1.526
0.713371,1.526
0.713507,1.526
0.713643,1.526
0.713779,1.526
0.713916,1.526
0.714052,1.526
0.714188,1.526
0.714325,1.526
0.714461,1.526
0.714597,1.526
0.714734,1.526
0.714870,1.526
0.715006,1.526
0.715142,1.526
0.715279,1.526
0.715415,1.526
0.715551,1.526
0.715688,1.526
0.715824,1.526
0.715960,1.526
0.716096,1.526
0.716233,1.526
0.716369,1.526
0.716505,1.526
0.716642,1.526
0.716778,1.526
0.716914,1.526
0.717051,1.526
0.717187,1.526
0.717323,1.526
0.717459,1.526
0.717596,1.526
0.717732,1.526
0.717868,1.526
0.718005,1.526
0.718141,1.526
0.718277,1.526
0.718414,1.526
0.718550,1.526
0.718686,1.526
0.718822,1.526
0.718959,1.526
0.719095,1.526
0.719231,1.526
0.719368,1.526
0.719504,1.478
0.719640,1.478
0.719776,1.478
0.719913,1.478
0.720049,1.478
0.720185,1.478
0.720322,1.478
0.720458,1.478
0.720594,1.478
0.720731,1.478
0.720867,1.431
0.721003,1.431
0.721139,1.431
0.721276,1.431
0.721412,1.431
0.721548,1.431
0.721685,1.431
0.721821,1.431
0.721957,1.431
0.722093,1.431
0.722230,1.431
0.722366,1.431
0.722502,1.431
0.722639,1.431
0.722775,1.431
0.722911,1.431
0.723048,1.431
0.723184,1.431
0.723320,1.431
0.723456,1.431
0.723593,1.431
0.723729,1.431
0.723865,1.431
0.724002,1.383
0.724138,1.383
0.724274,1.383
0.724411,1.383
0.724547,1.383
0.724683,1.383
0.724819,1.335
0.724956,1.335
0.725092,1.335
0.725228,1.335
0.725365,1.335
0.725501,1.335
0.725637,1.335
0.725773,1.335
0.725910,1.335
0.726046,1.335
0.726182,1.335
0.726319,1.335
0.726455,1.335
0.726591,1.335
0.726728,1.335
0.726864,1.335
0.727000,1.335
0.727136,1.335
0.727273,1.335
0.727409,1.335
0.727545,1.335
0.727682,1.335
0.727818,1.335
0.727954,1.335
0.728091,1.335
0.728227,1.335
0.728363,1.240
0.728499,1.240
0.728636,1.240
0.728772,1.240
0.728908,1.240
0.729045,1.240
0.729181,1.240
0.729317,1.240
0.729453,1.240
0.729590,1.240
0.729726,1.192
0.729862,1.192
0.729999,1.192
0.730135,1.192
0.730271,1.192
0.730408,1.192
0.730544,1.192
0.730680,1.192
0.730816,1.192
0.730953,1.192
0.731089,1.192
0.731225,1.192
0.731362,1.192
0.731498,1.192
0.731634,1.192
0.731770,1.192
0.731907,1.192
0.732043,1.192
0.732179,1.192
0.732316,1.192
0.732452,1.192
0.732588,1.192
0.732725,1.049
0.732861,1.049
0.732997,1.049
0.733133,1.049
0.733270,1.049
0.733406,1.049
0.733542,1.049
0.733679,1.049
0.733815,1.049
0.733951,1.049
0.734088,1.049
0.734224,1.049
0.734360,1.049
0.734496,1.049
0.734633,1.049
0.734769,1.049
0.734905,1.049
0.735042,1.049
0.735178,1.049
0.735314,1.049
0.735450,1.049
0.735587,1.049
0.735723,1.049
0.735859,1.049
0.735996,1.049
0.736132,1.049
0.736268,1.049
0.736405,1.001
0.736541,1.001
0.736677,1.001
0.736813,1.001
0.736950,1.001
0.737086,0.906
0.737222,0.858
0.737359,0.858
0.737495,0.858
0.737631,0.858
0.737767,0.858
0.737904,0.858
0.738040,0.858
0.738176,0.858
0.738313,0.858
0.738449,0.858
0.738585,0.858
0.738722,0.858
0.738858,0.858
0.738994,0.858
0.739130,0.858
0.739267,0.858
0.739403,0.858
0.739539,0.858
0.739676,0.858
0.739812,0.858
0.739948,0.858
0.740085,0.858
0.740221,0.858
0.740357,0.858
0.740493,0.858
0.740630,0.858
0.740766,0.858
0.740902,0.858
0.741039,0.858
0.741175,0.858
0.741311,0.811
0.741447,0.620
0.741584,0.620
0.741720,0.620
0.741856,0.620
0.741993,0.620
0.742129,0.620
0.742265,0.620
0.742402,0.620
0.742538,0.620
0.742674,0.620
0.742810,0.620
0.742947,0.620
0.743083,0.620
0.743219,0.620
0.743356,0.620
0.743492,0.620
0.743628,0.620
0.743764,0.620
0.743901,0.620
0.744037,0.620
0.744173,0.620
0.744310,0.620
0.744446,0.620
0.744582,0.620
0.744719,0.620
0.744855,0.620
0.744991,0.620
0.745127,0.620
0.745264,0.620
0.745400,0.572
0.745536,0.572
0.745673,0.572
0.745809,0.477
0.745945,0.477
0.746082,0.477
0.746218,0.429
0.746354,0.429
0.746490,0.429
0.746627,0.429
0.746763,0.429
0.746899,0.429
0.747036,0.429
0.747172,0.429
0.747308,0.429
0.747444,0.429
0.747581,0.429
0.747717,0.429
0.747853,0.429
0.747990,0.429
0.748126,0.429
0.748262,0.429
0.748399,0.429
0.748535,0.429
0.748671,0.429
0.748807,0.429
0.748944,0.429
0.749080,0.429
0.749216,0.429
0.749353,0.429
0.749489,0.429
0.749625,0.429
0.749761,0.429
0.749898,0.429
0.750034,0.429
0.750170,0.286
0.750307,0.286
0.750443,0.286
0.750579,0.286
0.750716,0.286
0.750852,0.286
0.750988,0.286
0.751124,0.286
0.751261,0.238
0.751397,0.238
0.751533,0.238
0.751670,0.238
0.751806,0.238
0.751942,0.238
0.752079,0.238
0.752215,0.238
0.752351,0.238
0.752487,0.238
0.752624,0.238
0.752760,0.238
0.752896,0.238
0.753033,0.238
0.753169,0.238
0.753305,0.238
0.753441,0.238
0.753578,0.238
0.753714,0.238
0.753850,0.238
0.753987,0.238
0.754123,0.238
0.754259,0.238
0.754396,0.238
0.754532,0.095
0.754668,0.095
0.754804,0.095
0.754941,0.095
0.755077,0.095
0.755213,0.095
0.755350,0.095
0.755486,0.095
0.755622,0.095
0.755758,0.095
0.755895,0.095
0.756031,0.095
0.756167,0.095
0.756304,0.095
0.756440,0.095
0.756576,0.095
0.756713,0.095
0.756849,0.095
0.756985,0.095
0.757121,0.095
0.757258,0.095
0.757394,0.095
0.757530,0.095
0.757667,0.095
0.757803,0.095
0.757939,0.095
0.758076,0.095
0.758212,0.095
0.758348,0.095
0.758484,0.048
0.758621,0.048
0.758757,0.048
0.758893,0.000
0.759030,0.000
0.759166,0.000
0.759302,0.000
0.759438,0.000
0.759575,0.000
0.759711,0.000
0.759847,0.000
0.759984,0.000
0.760120,0.000
0.760256,0.000
0.760393,0.000
0.760529,0.000
0.760665,0.000
0.760801,0.000
0.760938,0.000
0.761074,0.000
0.761210,0.000
0.761347,0.000
0.761483,0.000
0.761619,0.000
0.761755,0.000
0.761892,0.000
0.762028,0.000
0.762164,0.000
0.762301,0.000
0.762437,0.000
0.762573,0.000
0.762710,0.000
0.762846,-0.048
0.762982,-0.048
0.763118,-0.048
0.763255,-0.095
0.763391,-0.095
0.763527,-0.095
0.763664,-0.095
0.763800,-0.143
0.763936,-0.143
0.764073,-0.143
0.764209,-0.143
0.764345,-0.143
0.764481,-0.143
0.764618,-0.143
0.764754,-0.143
0.764890,-0.143
0.765027,-0.143
0.765163,-0.143
0.765299,-0.143
0.765435,-0.143
0.765572,-0.143
0.765708,-0.143
0.765844,-0.143
0.765981,-0.143
0.766117,-0.143
0.766253,-0.143
0.766390,-0.143
0.766526,-0.143
0.766662,-0.143
0.766798,-0.143
0.766935,-0.143
0.767071,-0.143
0.767207,-0.143
0.767344,-0.143
0.767480,-0.143
0.767616,-0.238
0.767752,-0.238
0.767889,-0.238
0.768025,-0.238
0.768161,-0.238
0.768298,-0.238
0.768434,-0.238
0.768570,-0.238
0.768707,-0.238
0.768843,-0.238
0.768979,-0.238
0.769115,-0.238
0.769252,-0.238
0.769388,-0.238
0.769524,-0.238
0.769661,-0.238
0.769797,-0.238
0.769933,-0.238
0.770070,-0.238
0.770206,-0.238
0.770342,-0.238
0.770478,-0.238
0.770615,-0.238
0.770751,-0.238
0.770887,-0.238
0.771024,-0.238
0.771160,-0.238
0.771296,-0.238
0.771432,-0.238
0.771569,-0.238
0.771705,-0.238
0.771841,-0.238
0.771978,-0.286
0.772114,-0.286
0.772250,-0.286
0.772387,-0.286
0.772523,-0.286
0.772659,-0.286
0.772795,-0.286
0.772932,-0.286
0.773068,-0.286
0.773204,-0.286
0.773341,-0.286
0.773477,-0.286
0.773613,-0.286
0.773749,-0.286
0.773886,-0.286
0.774022,-0.286
0.774158,-0.286
0.774295,-0.286
0.774431,-0.286
0.774567,-0.286
0.774704,-0.286
0.774840,-0.286
0.774976,-0.286
0.775112,-0.334
0.775249,-0.334
0.775385,-0.334
0.775521,-0.334
0.775658,-0.334
0.775794,-0.334
0.775930,-0.334
0.776067,-0.334
0.776203,-0.334
0.776339,-0.334
0.776475,-0.334
0.776612,-0.334
0.776748,-0.334
0.776884,-0.334
0.777021,-0.334
0.777157,-0.334
0.777293,-0.334
0.777429,-0.334
0.777566,-0.334
0.777702,-0.334
0.777838,-0.334
0.777975,-0.381
0.778111,-0.381
0.778247,-0.381
0.778384,-0.381
0.778520,-0.381
0.778656,-0.381
0.778792,-0.381
0.778929,-0.381
0.779065,-0.381
0.779201,-0.381
0.779338,-0.381
0.779474,-0.381
0.779610,-0.381
0.779746,-0.381
0.779883,-0.381
0.780019,-0.381
0.780155,-0.381
0.780292,-0.381
0.780428,-0.381
0.780564,-0.381
0.780701,-0.381
0.780837,-0.381
0.780973,-0.381
0.781109,-0.381
0.781246,-0.381
0.781382,-0.381
0.781518,-0.381
0.781655,-0.381
0.781791,-0.381
0.781927,-0.381
0.782064,-0.381
0.782200,-0.381
0.782336,-0.381
0.782472,-0.381
0.782609,-0.381
0.782745,-0.381
0.782881,-0.381
0.783018,-0.381
0.783154,-0.381
0.783290,-0.381
0.783426,-0.381
0.783563,-0.381
0.783699,-0.381
0.783835,-0.381
0.783972,-0.381
0.784108,-0.381
0.784244,-0.381
0.784381,-0.381
0.784517,-0.381
0.784653,-0.381
0.784789,-0.381
0.784926,-0.381
0.785062,-0.381
0.785198,-0.381
0.785335,-0.381
0.785471,-0.381
0.785607,-0.381
0.785743,-0.381
0.785880,-0.381
0.786016,-0.381
0.786152,-0.381
0.786289,-0.381
0.786425,-0.381
0.786561,-0.381
0.786698,-0.381
0.786834,-0.381
0.786970,-0.381
0.787106,-0.381
0.787243,-0.381
0.787379,-0.381
0.787515,-0.381
0.787652,-0.381
0.787788,-0.381
0.787924,-0.381
0.788061,-0.381
0.788197,-0.381
0.788333,-0.381
0.788469,-0.381
0.788606,-0.381
0.788742,-0.381
0.788878,-0.381
0.789015,-0.381
0.789151,-0.381
0.789287,-0.381
0.789423,-0.381
0.789560,-0.381
0.789696,-0.381
0.789832,-0.381
0.789969,-0.381
0.790105,-0.381
0.790241,-0.381
0.790378,-0.381
0.790514,-0.381
0.790650,-0.381
0.790786,-0.381
0.790923,-0.381
0.791059,-0.381
0.791195,-0.381
0.791332,-0.381
0.791468,-0.381
0.791604,-0.381
0.791740,-0.381
0.791877,-0.381
0.792013,-0.381
0.792149,-0.381
0.792286,-0.381
0.792422,-0.381
0.792558,-0.381
0.792695,-0.381
0.792831,-0.381
0.792967,-0.381
0.793103,-0.381
0.793240,-0.381
0.793376,-0.381
0.793512,-0.381
0.793649,-0.381
0.793785,-0.381
0.793921,-0.334
0.794058,-0.334
0.794194,-0.334
0.794330,-0.286
0.794466,-0.238
0.794603,-0.191
0.794739,-0.143
0.794875,-0.095
0.795012,0.000
0.795148,0.048
0.795284,0.191
0.795420,0.334
0.795557,0.525
0.795693,0.715
0.795829,0.954
0.795966,1.192
0.796102,1.478
0.796238,1.764
0.796375,2.146
0.796511,2.527
0.796647,2.956
0.796783,3.433
0.796920,3.910
0.797056,4.482
0.797192,5.054
0.797329,5.674
0.797465,6.342
0.797601,7.057
0.797737,7.820
0.797874,8.631
0.798010,9.489
0.798146,153.923
0.798283,154.734
0.798419,155.449
0.798555,156.164
0.798692,156.784
0.798828,157.404
0.798964,157.928
0.799100,158.405
0.799237,158.882
0.799373,159.264
0.799509,159.597
0.799646,159.931
0.799782,160.170
0.799918,160.360
0.800055,160.503
0.800191,160.646
0.800327,160.694
0.800463,160.694
0.800600,160.646
0.800736,160.551
0.800872,160.456
0.801009,160.265
0.801145,160.027
0.801281,159.740
0.801417,159.454
0.801554,159.073
0.801690,158.691
0.801826,158.262
0.801963,157.785
0.802099,157.261
0.802235,156.689
0.802372,156.069
0.802508,69.857
0.802644,69.141
0.802780,68.426
0.802917,67.711
0.803053,66.996
0.803189,66.280
0.803326,65.613
0.803462,64.898
0.803598,64.182
0.803734,63.515
0.803871,62.799
0.804007,62.132
0.804143,61.417
0.804280,60.749
0.804416,60.034
0.804552,59.319
0.804689,58.651
0.804825,57.936
0.804961,57.268
0.805097,56.553
0.805234,55.885
0.805370,55.170
0.805506,54.455
0.805643,53.740
0.805779,53.072
0.805915,52.357
0.806052,51.641
0.806188,50.926
0.806324,50.211
0.806460,49.496
0.806597,48.828
0.806733,48.113
0.806869,13.781
0.807006,13.638
0.807142,13.542
0.807278,13.399
0.807414,13.304
0.807551,13.208
0.807687,13.065
0.807823,12.970
0.807960,12.827
0.808096,12.732
0.808232,12.589
0.808369,12.493
0.808505,12.350
0.808641,12.255
0.808777,12.112
0.808914,11.969
0.809050,11.873
0.809186,11.730
0.809323,11.587
0.809459,11.444
0.809595,11.301
0.809731,11.158
0.809868,11.015
0.810004,10.872
0.810140,10.729
0.810277,10.586
0.810413,10.395
0.810549,10.252
0.810686,10.061
0.810822,9.918
0.810958,9.727
0.811094,9.537
0.811231,-96.464
0.811367,-98.848
0.811503,-101.233
0.811640,-103.617
0.811776,-105.953
0.811912,-108.290
0.812049,-110.626
0.812185,-112.915
0.812321,-115.204
0.812457,-117.445
0.812594,-119.686
0.812730,-121.880
0.812866,-124.073
0.813003,-126.219
0.813139,-128.317
0.813275,-130.415
0.813411,-132.465
0.813548,-134.468
0.813684,-136.423
0.813820,-138.378
0.813957,-140.285
0.814093,-142.145
0.814229,-143.957
0.814366,-145.721
0.814502,-147.486
0.814638,-149.202
0.814774,-150.871
0.814911,-152.493
0.815047,-154.066
0.815183,-155.592
0.815320,-157.118
0.815456,-158.548
0.815592,-161.552
0.815728,-160.837
0.815865,-160.074
0.816001,-159.359
0.816137,-158.596
0.816274,-157.833
0.816410,-157.118
0.816546,-156.355
0.816683,-155.592
0.816819,-154.829
0.816955,-154.114
0.817091,-153.351
0.817228,-152.588
0.817364,-151.825
0.817500,-151.110
0.817637,-150.347
0.817773,-149.584
0.817909,-148.869
0.818046,-148.106
0.818182,-147.390
0.818318,-146.627
0.818454,-145.912
0.818591,-145.197
0.818727,-144.482
0.818863,-143.719
0.819000,-143.003
0.819136,-142.336
0.819272,-141.621
0.819408,-140.905
0.819545,-140.238
0.819681,-139.523
0.819817,-138.855
0.819954,-101.852
0.820090,-101.519
0.820226,-101.137
0.820363,-100.803
0.820499,-100.422
0.820635,-100.088
0.820771,-99.707
0.820908,-99.373
0.821044,-98.991
0.821180,-98.658
0.821317,-98.276
0.821453,-97.895
0.821589,-97.561
0.821726,-97.179
0.821862,-96.798
0.821998,-96.464
0.822134,-96.083
0.822271,-95.701
0.822407,-95.320
0.822543,-94.986
0.822680,-94.604
0.822816,-94.223
0.822952,-93.842
0.823088,-93.460
0.823225,-93.079
0.823361,-92.697
0.823497,-92.316
0.823634,-91.934
0.823770,-91.505
0.823906,-91.124
0.824043,-90.742
0.824179,-90.313
0.824315,-60.320
0.824451,-60.177
0.824588,-60.034
0.824724,-59.891
0.824860,-59.748
0.824997,-59.652
0.825133,-59.509
0.825269,-59.414
0.825405,-59.319
0.825542,-59.271
0.825678,-59.223
0.825814,-59.175
0.825951,-59.128
0.826087,-59.128
0.826223,-59.080
0.826360,-59.080
0.826496,-59.128
0.826632,-59.128
0.826768,-59.175
0.826905,-59.223
0.827041,-59.271
0.827177,-59.319
0.827314,-59.414
0.827450,-59.509
0.827586,-59.557
0.827723,-59.652
0.827859,-59.748
0.827995,-59.843
0.828131,-59.938
0.828268,-60.034
0.828404,-60.129
0.828540,-60.225
0.828677,-29.421
0.828813,-28.801
0.828949,-28.181
0.829085,-27.561
0.829222,-26.941
0.829358,-26.321
0.829494,-25.702
0.829631,-25.129
0.829767,-24.509
0.829903,-23.937
0.830040,-23.365
0.830176,-22.793
0.830312,-22.221
0.830448,-21.648
0.830585,-21.124
0.830721,-20.552
0.830857,-20.027
0.830994,-19.503
0.831130,-18.978
0.831266,-18.454
0.831402,-17.929
0.831539,-17.452
0.831675,-16.928
0.831811,-16.451
0.831948,-15.974
0.832084,-15.497
0.832220,-15.068
0.832357,-14.591
0.832493,-14.162
0.832629,-13.733
0.832765,-13.304
0.832902,-12.875
0.833038,4.005
0.833174,4.101
0.833311,4.244
0.833447,4.339
0.833583,4.482
0.833720,4.625
0.833856,4.721
0.833992,4.864
0.834128,5.007
0.834265,5.102
0.834401,5.245
0.834537,5.341
0.834674,5.484
0.834810,5.627
0.834946,5.722
0.835082,5.865
0.835219,6.008
0.835355,6.104
0.835491,6.247
0.835628,6.390
0.835764,6.485
0.835900,6.628
0.836037,6.771
0.836173,6.866
0.836309,7.010
0.836445,7.153
0.836582,7.248
0.836718,7.391
0.836854,7.534
0.836991,7.629
0.837127,7.772
0.837263,7.915
0.837399,16.689
0.837536,16.499
0.837672,16.308
0.837808,16.117
0.837945,15.831
0.838081,15.545
0.838217,15.211
0.838354,14.830
0.838490,14.448
0.838626,13.971
0.838762,13.447
0.838899,12.922
0.839035,12.302
0.839171,11.683
0.839308,10.967
0.839444,10.252
0.839580,9.441
0.839717,8.631
0.839853,7.725
0.839989,6.771
0.840125,5.817
0.840262,4.768
0.840398,3.672
0.840534,2.575
0.840671,1.383
0.840807,0.143
0.840943,-1.097
0.841079,-2.432
0.841216,-3.767
0.841352,-5.198
0.841488,-6.676
0.841625,-8.154
0.841761,-172.949
0.841897,-174.427
0.842034,-175.810
0.842170,-177.145
0.842306,-178.385
0.842442,-179.577
0.842579,-180.721
0.842715,-181.770
0.842851,-182.724
0.842988,-183.630
0.843124,-184.441
0.843260,-185.108
0.843396,-185.728
0.843533,-186.205
0.843669,-186.586
0.843805,-186.872
0.843942,-187.063
0.844078,-187.063
0.844214,-187.016
0.844351,-186.777
0.844487,-186.396
0.844623,-185.919
0.844759,-185.251
0.844896,-184.441
0.845032,-183.487
0.845168,-182.390
0.845305,-181.055
0.845441,-179.625
0.845577,-178.003
0.845714,-176.191
0.845850,-174.189
0.845986,-171.995
0.846122,616.884
0.846259,629.234
0.846395,641.584
0.846531,653.839
0.846668,666.094
0.846804,678.301
0.846940,690.460
0.847076,702.524
0.847213,714.588
0.847349,726.604
0.847485,738.525
0.847622,750.446
0.847758,762.272
0.847894,774.050
0.848031,785.732
0.848167,797.367
0.848303,808.954
0.848439,820.494
0.848576,831.938
0.848712,843.287
0.848848,854.588
0.848985,865.793
0.849121,876.951
0.849257,888.062
0.849393,899.029
0.849530,909.948
0.849666,920.773
0.849802,931.549
0.849939,942.230
0.850075,952.816
0.850211,963.306
0.850348,973.749
0.850484,1210.403
0.850620,1200.914
0.850756,1191.092
0.850893,1180.983
0.851029,1170.540
0.851165,1159.811
0.851302,1148.796
0.851438,1137.447
0.851574,1125.860
0.851711,1113.987
0.851847,1101.828
0.851983,1089.382
0.852119,1076.651
0.852256,1063.681
0.852392,1050.425
0.852528,1036.930
0.852665,1023.197
0.852801,1009.226
0.852937,994.968
0.853073,980.520
0.853210,965.834
0.853346,950.956
0.853482,935.841
0.853619,920.486
0.853755,904.942
0.853891,889.206
0.854028,873.280
0.854164,857.162
0.854300,840.902
0.854436,824.451
0.854573,807.810
0.854709,791.025
0.854845,-659.227
0.854982,-671.387
0.855118,-683.355
0.855254,-695.133
0.855390,-706.768
0.855527,-718.164
0.855663,-729.465
0.855799,-740.528
0.855936,-751.400
0.856072,-762.129
0.856208,-772.619
0.856345,-782.967
0.856481,-793.076
0.856617,-802.994
0.856753,-812.721
0.856890,-822.210
0.857026,-831.509
0.857162,-840.616
0.857299,-849.485
0.857435,-858.164
0.857571,-866.604
0.857708,-874.853
0.857844,-882.816
0.857980,-890.589
0.858116,-898.123
0.858253,-905.466
0.858389,-912.523
0.858525,-919.342
0.858662,-925.970
0.858798,-932.312
0.858934,-938.463
0.859070,-944.328
0.859207,-751.114
0.859343,-744.820
0.859479,-738.573
0.859616,-732.279
0.859752,-725.985
0.859888,-719.690
0.860025,-713.396
0.860161,-707.102
0.860297,-700.808
0.860433,-694.513
0.860570,-688.219
0.860706,-681.925
0.860842,-675.678
0.860979,-669.384
0.861115,-663.137
0.861251,-656.891
0.861387,-650.692
0.861524,-644.493
0.861660,-638.294
0.861796,-632.143
0.861933,-625.992
0.862069,-619.888
0.862205,-613.785
0.862342,-607.729
0.862478,-601.673
0.862614,-595.713
0.862750,-589.705
0.862887,-583.792
0.863023,-577.879
0.863159,-572.062
0.863296,-566.244
0.863432,-560.474
0.863568,-293.684
0.863705,-292.873
0.863841,-292.063
0.863977,-291.300
0.864113,-290.537
0.864250,-289.822
0.864386,-289.106
0.864522,-288.439
0.864659,-287.771
0.864795,-287.104
0.864931,-286.484
0.865067,-285.816
0.865204,-285.244
0.865340,-284.624
0.865476,-284.052
0.865613,-283.480
0.865749,-282.907
0.865885,-282.335
0.866022,-281.811
0.866158,-281.239
0.866294,-280.714
0.866430,-280.190
0.866567,-279.665
0.866703,-279.140
0.866839,-278.616
0.866976,-278.091
0.867112,-277.567
0.867248,-277.042
0.867384,-276.518
0.867521,-275.993
0.867657,-275.469
0.867793,-274.897
0.867930,-188.541
0.868066,-187.206
0.868202,-185.919
0.868339,-184.584
0.868475,-183.296
0.868611,-181.961
0.868747,-180.674
0.868884,-179.338
0.869020,-178.051
0.869156,-176.764
0.869293,-175.476
0.869429,-174.189
0.869565,-172.901
0.869702,-171.614
0.869838,-170.326
0.869974,-169.039
0.870110,-167.751
0.870247,-166.512
0.870383,-165.272
0.870519,-164.032
0.870656,-162.792
0.870792,-161.552
0.870928,-160.313
0.871064,-159.121
0.871201,-157.881
0.871337,-156.689
0.871473,-155.497
0.871610,-154.305
0.871746,-153.160
0.871882,-152.016
0.872019,-150.824
0.872155,-149.727
0.872291,-83.780
0.872427,-83.208
0.872564,-82.636
0.872700,-82.016
0.872836,-81.444
0.872973,-80.872
0.873109,-80.299
0.873245,-79.727
0.873381,-79.155
0.873518,-78.535
0.873654,-77.963
0.873790,-77.343
0.873927,-76.771
0.874063,-76.151
0.874199,-75.579
0.874336,-74.959
0.874472,-74.387
0.874608,-73.767
0.874744,-73.147
0.874881,-72.527
0.875017,-71.907
0.875153,-71.287
0.875290,-70.667
0.875426,-70.000
0.875562,-69.380
0.875699,-68.760
0.875835,-68.092
0.875971,-67.472
0.876107,-66.805
0.876244,-66.137
0.876380,-65.517
0.876516,-64.850
0.876653,-8.488
0.876789,-7.915
0.876925,-7.343
0.877061,-6.819
0.877198,-6.247
0.877334,-5.722
0.877470,-5.150
0.877607,-4.625
0.877743,-4.101
0.877879,-3.529
0.878016,-3.004
0.878152,-2.480
0.878288,-1.955
0.878424,-1.383
0.878561,-0.858
0.878697,-0.334
0.878833,0.143
0.878970,0.668
0.879106,1.192
0.879242,1.717
0.879378,2.241
0.879515,2.766
0.879651,3.290
0.879787,3.815
0.879924,4.339
0.880060,4.864
0.880196,5.388
0.880333,5.865
0.880469,6.390
0.880605,6.914
0.880741,7.439
0.880878,7.963
0.881014,49.114
0.881150,49.496
0.881287,49.877
0.881423,50.259
0.881559,50.640
0.881696,51.022
0.881832,51.355
0.881968,51.737
0.882104,52.118
0.882241,52.452
0.882377,52.786
0.882513,53.167
0.882650,53.501
0.882786,53.835
0.882922,54.216
0.883058,54.550
0.883195,54.884
0.883331,55.218
0.883467,55.552
0.883604,55.885
0.883740,56.219
0.883876,56.505
0.884013,56.839
0.884149,57.173
0.884285,57.459
0.884421,57.793
0.884558,58.079
0.884694,58.413
0.884830,58.699
0.884967,58.985
0.885103,59.271
0.885239,59.605
0.885375,82.779
0.885512,83.017
0.885648,83.303
0.885784,83.542
0.885921,83.780
0.886057,84.019
0.886193,84.257
0.886330,84.543
0.886466,84.782
0.886602,85.020
0.886738,85.258
0.886875,85.497
0.887011,85.735
0.887147,85.926
0.887284,86.164
0.887420,86.403
0.887556,86.641
0.887693,86.880
0.887829,87.070
0.887965,87.309
0.888101,87.547
0.888238,87.738
0.888374,87.976
0.888510,88.215
0.888647,88.406
0.888783,88.644
0.888919,88.835
0.889055,89.025
0.889192,89.264
0.889328,89.455
0.889464,89.645
0.889601,89.836
0.889737,106.716
0.889873,106.955
0.890010,107.193
0.890146,107.431
0.890282,107.670
0.890418,107.908
0.890555,108.147
0.890691,108.385
0.890827,108.624
0.890964,108.862
0.891100,109.100
0.891236,109.339
0.891372,109.577
0.891509,109.816
0.891645,110.054
0.891781,110.292
0.891918,110.531
0.892054,110.769
0.892190,110.960
0.892327,111.198
0.892463,111.437
0.892599,111.628
0.892735,111.866
0.892872,112.057
0.893008,112.295
0.893144,112.486
0.893281,112.677
0.893417,112.915
0.893553,113.106
0.893690,113.297
0.893826,113.487
0.893962,113.630
0.894098,115.967
0.894235,115.967
0.894371,115.919
0.894507,115.919
0.894644,115.871
0.894780,115.871
0.894916,115.871
0.895052,115.871
0.895189,115.824
0.895325,115.824
0.895461,115.824
0.895598,115.824
0.895734,115.824
0.895870,115.824
0.896007,115.824
0.896143,115.824
0.896279,115.824
0.896415,115.824
0.896552,115.824
0.896688,115.824
0.896824,115.871
0.896961,115.871
0.897097,115.871
0.897233,115.871
0.897369,115.871
0.897506,115.919
0.897642,115.919
0.897778,115.919
0.897915,115.919
0.898051,115.967
0.898187,115.967
0.898324,115.967
0.898460,116.873
0.898596,116.920
0.898732,116.968
0.898869,117.016
0.899005,117.064
0.899141,117.111
0.899278,117.159
0.899414,117.207
0.899550,117.207
0.899687,117.254
0.899823,117.302
0.899959,117.350
0.900095,117.397
0.900232,117.445
0.900368,117.493
0.900504,117.540
0.900641,117.588
0.900777,117.636
0.900913,117.683
0.901049,117.731
0.901186,117.779
0.901322,117.779
0.901458,117.826
0.901595,117.874
0.901731,117.922
0.901867,117.970
0.902004,117.970
0.902140,118.017
0.902276,118.065
0.902412,118.065
0.902549,118.113
0.902685,118.113
0.902821,110.245
0.902958,110.054
0.903094,109.911
0.903230,109.720
0.903366,109.529
0.903503,109.386
0.903639,109.243
0.903775,109.053
0.903912,108.910
0.904048,108.719
0.904184,108.576
0.904321,108.433
0.904457,108.242
0.904593,108.099
0.904729,107.956
0.904866,107.813
0.905002,107.670
0.905138,107.527
0.905275,107.384
0.905411,107.241
0.905547,107.145
0.905684,107.002
0.905820,106.859
0.905956,106.764
0.906092,106.668
0.906229,106.573
0.906365,106.478
0.906501,106.382
0.906638,106.335
0.906774,106.287
0.906910,106.239
0.907046,106.239
0.907183,230.932
0.907319,232.601
0.907455,234.270
0.907592,235.891
0.907728,237.417
0.907864,238.991
0.908001,240.469
0.908137,241.899
0.908273,243.330
0.908409,244.665
0.908546,246.000
0.908682,247.240
0.908818,248.480
0.908955,249.672
0.909091,250.816
0.909227,251.865
0.909364,252.914
0.909500,253.916
0.909636,254.869
0.909772,255.728
0.909909,256.586
0.910045,257.349
0.910181,258.112
0.910318,258.780
0.910454,259.447
0.910590,260.019
0.910726,260.544
0.910863,261.068
0.910999,261.497
0.911135,261.879
0.911272,262.213
0.911408,262.499
0.911544,283.575
0.911681,284.529
0.911817,285.530
0.911953,286.484
0.912089,287.485
0.912226,288.439
0.912362,289.345
0.912498,290.251
0.912635,291.157
0.912771,292.063
0.912907,292.921
0.913043,293.779
0.913180,294.590
0.913316,295.353
0.913452,296.116
0.913589,296.879
0.913725,297.594
0.913861,298.262
0.913998,298.882
0.914134,299.501
0.914270,300.074
0.914406,300.646
0.914543,301.123
0.914679,301.600
0.914815,302.029
0.914952,302.410
0.915088,302.792
0.915224,303.078
0.915361,303.364
0.915497,303.602
0.915633,303.793
0.915769,303.936
0.915906,186.634
0.916042,184.774
0.916178,182.962
0.916315,181.150
0.916451,179.386
0.916587,177.622
0.916723,175.905
0.916860,174.189
0.916996,172.520
0.917132,170.898
0.917269,169.277
0.917405,167.704
0.917541,166.178
0.917678,164.700
0.917814,163.221
0.917950,161.839
0.918086,160.456
0.918223,159.121
0.918359,157.833
0.918495,156.593
0.918632,155.401
0.918768,154.257
0.918904,153.160
0.919040,152.111
0.919177,151.062
0.919313,150.108
0.919449,149.155
0.919586,148.249
0.919722,147.390
0.919858,146.532
0.919995,145.769
0.920131,145.006
0.920267,178.623
0.920403,179.291
0.920540,179.958
0.920676,180.578
0.920812,181.198
0.920949,181.770
0.921085,182.295
0.921221,182.819
0.921358,183.296
0.921494,183.773
0.921630,184.202
0.921766,184.584
0.921903,184.965
0.922039,185.299
0.922175,185.585
0.922312,185.871
0.922448,186.110
0.922584,186.300
0.922720,186.491
0.922857,186.586
0.922993,186.682
0.923129,186.729
0.923266,186.777
0.923402,186.729
0.923538,186.682
0.923675,186.586
0.923811,186.491
0.923947,186.300
0.924083,186.110
0.924220,185.871
0.924356,185.585
0.924492,185.251
0.924629,59.795
0.924765,58.174
0.924901,56.553
0.925037,54.979
0.925174,53.406
0.925310,51.832
0.925446,50.306
0.925583,48.733
0.925719,47.255
0.925855,45.729
0.925992,44.250
0.926128,42.820
0.926264,41.342
0.926400,39.911
0.926537,38.528
0.926673,37.098
0.926809,35.715
0.926946,34.380
0.927082,33.045
0.927218,31.710
0.927355,30.375
0.927491,29.087
0.927627,27.800
0.927763,26.560
0.927900,25.320
0.928036,24.080
0.928172,22.840
0.928309,21.648
0.928445,20.504
0.928581,19.312
0.928717,18.167
0.928854,17.023
0.928990,-69.284
0.929126,-70.333
0.929263,-71.430
0.929399,-72.479
0.929535,-73.576
0.929672,-74.720
0.929808,-75.865
0.929944,-77.009
0.930080,-78.201
0.930217,-79.393
0.930353,-80.633
0.930489,-81.921
0.930626,-83.208
0.930762,-84.543
0.930898,-85.878
0.931034,-87.309
0.931171,-88.739
0.931307,-90.170
0.931443,-91.696
0.931580,-93.222
0.931716,-94.795
0.931852,-96.416
0.931989,-98.085
0.932125,-99.754
0.932261,-101.471
0.932397,-103.283
0.932534,-105.095
0.932670,-106.955
0.932806,-108.862
0.932943,-110.769
0.933079,-112.772
0.933215,-114.775
0.933352,-311.422
0.933488,-312.328
0.933624,-313.187
0.933760,-313.997
0.933897,-314.760
0.934033,-315.428
0.934169,-316.095
0.934306,-316.715
0.934442,-317.240
0.934578,-317.764
0.934714,-318.193
0.934851,-318.623
0.934987,-319.004
0.935123,-319.338
0.935260,-319.624
0.935396,-319.862
0.935532,-320.053
0.935669,-320.196
0.935805,-320.339
0.935941,-320.435
0.936077,-320.482
0.936214,-320.482
0.936350,-320.482
0.936486,-320.435
0.936623,-320.387
0.936759,-320.244
0.936895,-320.148
0.937031,-319.958
0.937168,-319.767
0.937304,-319.576
0.937440,-319.338
0.937577,-319.099
0.937713,-369.835
0.937849,-371.361
0.937986,-372.887
0.938122,-374.365
0.938258,-375.843
0.938394,-377.321
0.938531,-378.799
0.938667,-380.230
0.938803,-381.613
0.938940,-382.996
0.939076,-384.378
0.939212,-385.714
0.939349,-387.049
0.939485,-388.288
0.939621,-389.576
0.939757,-390.768
0.939894,-392.008
0.940030,-393.152
0.940166,-394.297
0.940303,-395.393
0.940439,-396.490
0.940575,-397.539
0.940711,-398.588
0.940848,-399.590
0.940984,-400.543
0.941120,-401.497
0.941257,-402.451
0.941393,-403.404
0.941529,-404.310
0.941666,-405.169
0.941802,-406.075
0.941938,-406.933
0.942074,-475.931
0.942211,-476.027
0.942347,-476.122
0.942483,-476.122
0.942620,-476.122
0.942756,-476.122
0.942892,-476.027
0.943028,-475.931
0.943165,-475.740
0.943301,-475.550
0.943437,-475.311
0.943574,-475.073
0.943710,-474.739
0.943846,-474.405
0.943983,-474.024
0.944119,-473.595
0.944255,-473.166
0.944391,-472.641
0.944528,-472.116
0.944664,-471.544
0.944800,-470.924
0.944937,-470.257
0.945073,-469.542
0.945209,-468.826
0.945346,-468.016
0.945482,-467.205
0.945618,-466.394
0.945754,-465.488
0.945891,-464.582
0.946027,-463.629
0.946163,-462.627
0.946300,-461.578
0.946436,-313.187
0.946572,-311.518
0.946708,-309.896
0.946845,-308.275
0.946981,-306.654
0.947117,-305.033
0.947254,-303.459
0.947390,-301.886
0.947526,-300.312
0.947663,-298.738
0.947799,-297.213
0.947935,-295.639
0.948071,-294.113
0.948208,-292.587
0.948344,-291.109
0.948480,-289.631
0.948617,-288.105
0.948753,-286.627
0.948889,-285.196
0.949025,-283.718
0.949162,-282.240
0.949298,-280.809
0.949434,-279.379
0.949571,-277.948
0.949707,-276.518
0.949843,-275.135
0.949980,-273.705
0.950116,-272.322
0.950252,-270.939
0.950388,-269.508
0.950525,-268.126
0.950661,-266.743
0.950797,-160.170
0.950934,-159.121
0.951070,-158.072
0.951206,-157.022
0.951343,-155.973
0.951479,-154.924
0.951615,-153.875
0.951751,-152.874
0.951888,-151.825
0.952024,-150.776
0.952160,-149.775
0.952297,-148.726
0.952433,-147.724
0.952569,-146.675
0.952705,-145.674
0.952842,-144.672
0.952978,-143.623
0.953114,-142.622
0.953251,-141.621
0.953387,-140.619
0.953523,-139.618
0.953660,-138.569
0.953796,-137.568
0.953932,-136.566
0.954068,-135.565
0.954205,-134.611
0.954341,-133.610
0.954477,-132.608
0.954614,-131.607
0.954750,-130.606
0.954886,-129.652
0.955022,-128.651
0.955159,-49.591
0.955295,-48.685
0.955431,-47.827
0.955568,-46.921
0.955704,-46.062
0.955840,-45.156
0.955977,-44.298
0.956113,-43.392
0.956249,-42.486
0.956385,-41.628
0.956522,-40.722
0.956658,-39.816
0.956794,-38.958
0.956931,-38.052
0.957067,-37.146
0.957203,-36.287
0.957340,-35.381
0.957476,-34.475
0.957612,-33.617
0.957748,-32.711
0.957885,-31.805
0.958021,-30.899
0.958157,-30.041
0.958294,-29.135
0.958430,-28.229
0.958566,-27.370
0.958702,-26.464
0.958839,-25.558
0.958975,-24.700
0.959111,-23.794
0.959248,-22.888
0.959384,-22.030
0.959520,38.671
0.959657,39.244
0.959793,39.816
0.959929,40.388
0.960065,40.913
0.960202,41.485
0.960338,42.057
0.960474,42.582
0.960611,43.154
0.960747,43.726
0.960883,44.250
0.961019,44.823
0.961156,45.395
0.961292,45.919
0.961428,46.492
0.961565,47.016
0.961701,47.588
0.961837,48.161
0.961974,48.685
0.962110,49.257
0.962246,49.829
0.962382,50.354
0.962519,50.926
0.962655,51.498
0.962791,52.023
0.962928,52.595
0.963064,53.167
0.963200,53.740
0.963337,54.264
0.963473,54.836
0.963609,55.408
0.963745,55.933
0.963882,96.178
0.964018,96.512
0.964154,96.893
0.964291,97.275
0.964427,97.609
0.964563,97.990
0.964699,98.372
0.964836,98.705
0.964972,99.087
0.965108,99.468
0.965245,99.802
0.965381,100.183
0.965517,100.565
0.965654,100.899
0.965790,101.280
0.965926,101.614
0.966062,101.995
0.966199,102.377
0.966335,102.711
0.966471,103.092
0.966608,103.426
0.966744,103.807
0.966880,104.141
0.967016,104.523
0.967153,104.856
0.967289,105.238
0.967425,105.572
0.967562,105.906
0.967698,106.287
0.967834,106.621
0.967971,106.955
0.968107,107.336
0.968243,131.321
0.968379,131.559
0.968516,131.750
0.968652,131.941
0.968788,132.132
0.968925,132.370
0.969061,132.561
0.969197,132.751
0.969334,132.942
0.969470,133.133
0.969606,133.371
0.969742,133.562
0.969879,133.753
0.970015,133.944
0.970151,134.134
0.970288,134.325
0.970424,134.516
0.970560,134.706
0.970696,134.897
0.970833,135.088
0.970969,135.279
0.971105,135.469
0.971242,135.660
0.971378,135.851
0.971514,136.042
0.971651,136.232
0.971787,136.375
0.971923,136.566
0.972059,136.757
0.972196,136.948
0.972332,137.138
0.972468,137.281
0.972605,150.967
0.972741,151.157
0.972877,151.300
0.973013,151.443
0.973150,151.587
0.973286,151.777
0.973422,151.920
0.973559,152.063
0.973695,152.206
0.973831,152.397
0.973968,152.540
0.974104,152.683
0.974240,152.826
0.974376,153.017
0.974513,153.160
0.974649,153.303
0.974785,153.446
0.974922,153.637
0.975058,153.780
0.975194,153.923
0.975331,154.066
0.975467,154.209
0.975603,154.352
0.975739,154.543
0.975876,154.686
0.976012,154.829
0.976148,154.972
0.976285,155.115
0.976421,155.258
0.976557,155.401
0.976693,155.544
0.976830,155.687
0.976966,160.456
0.977102,160.408
0.977239,160.360
0.977375,160.265
0.977511,160.217
0.977648,160.170
0.977784,160.074
0.977920,160.027
0.978056,159.931
0.978193,159.836
0.978329,159.788
0.978465,159.693
0.978602,159.597
0.978738,159.550
0.978874,159.454
0.979010,159.359
0.979147,159.264
0.979283,159.168
0.979419,159.073
0.979556,158.978
0.979692,158.882
0.979828,158.787
0.979965,158.691
0.980101,158.596
0.980237,158.501
0.980373,158.405
0.980510,158.310
0.980646,158.167
0.980782,158.072
0.980919,157.976
0.981055,157.881
0.981191,157.785
0.981328,154.114
0.981464,153.923
0.981600,153.732
0.981736,153.542
0.981873,153.351
0.982009,153.112
0.982145,152.922
0.982282,152.731
0.982418,152.493
0.982554,152.302
0.982690,152.063
0.982827,151.873
0.982963,151.634
0.983099,151.396
0.983236,151.157
0.983372,150.967
0.983508,150.728
0.983645,150.490
0.983781,150.251
0.983917,150.013
0.984053,149.775
0.984190,149.584
0.984326,149.345
0.984462,149.107
0.984599,148.869
0.984735,148.630
0.984871,148.392
0.985007,148.153
0.985144,147.963
0.985280,147.724
0.985416,147.486
0.985553,147.295
0.985689,136.185
0.985825,136.137
0.985962,136.137
0.986098,136.089
0.986234,136.089
0.986370,136.042
0.986507,136.042
0.986643,135.994
0.986779,135.994
0.986916,135.946
0.987052,135.899
0.987188,135.899
0.987325,135.851
0.987461,135.803
0.987597,135.803
0.987733,135.756
0.987870,135.708
0.988006,135.660
0.988142,135.660
0.988279,135.612
0.988415,135.565
0.988551,135.517
0.988687,135.469
0.988824,135.422
0.988960,135.374
0.989096,135.326
0.989233,135.279
0.989369,135.231
0.989505,135.136
0.989642,135.088
0.989778,135.040
0.989914,134.945
0.990050,114.155
0.990187,113.869
0.990323,113.535
0.990459,113.249
0.990596,112.963
0.990732,112.677
0.990868,112.391
0.991004,112.104
0.991141,111.818
0.991277,111.532
0.991413,111.246
0.991550,111.008
0.991686,110.722
0.991822,110.435
0.991959,110.197
0.992095,109.911
0.992231,109.673
0.992367,109.434
0.992504,109.196
0.992640,108.910
0.992776,108.671
0.992913,108.433
0.993049,108.194
0.993185,108.004
0.993322,107.765
0.993458,107.527
0.993594,107.288
0.993730,107.098
0.993867,106.859
0.994003,106.668
0.994139,106.430
0.994276,106.239
0.994412,94.843
0.994548,94.700
0.994684,94.509
0.994821,94.318
0.994957,94.128
0.995093,93.937
0.995230,93.746
0.995366,93.555
0.995502,93.365
0.995639,93.174
0.995775,92.936
0.995911,92.745
0.996047,92.554
0.996184,92.363
0.996320,92.125
0.996456,91.934
0.996593,91.696
0.996729,91.505
0.996865,91.314
0.997001,91.076
0.997138,90.885
0.997274,90.647
0.997410,90.456
0.997547,90.218
0.997683,89.979
0.997819,89.788
0.997956,89.550
0.998092,89.359
0.998228,89.121
0.998364,88.930
0.998501,88.692
0.998637,88.453
0.998773,68.092
0.998910,67.854
0.999046,67.616
0.999182,67.329
0.999319,67.091
0.999455,66.853
0.999591,66.566
0.999727,66.328
0.999864,66.042
1.000000,65.804
1.000136,65.517
1.000273,65.279
1.000409,64.993
1.000545,64.707
1.000681,64.468
1.000818,64.182
1.000954,63.896
1.001090,63.610
1.001227,63.372
1.001363,63.086
1.001499,62.799
1.001636,62.513
1.001772,62.275
1.001908,61.989
1.002044,61.703
1.002181,61.464
1.002317,61.178
1.002453,60.892
1.002590,60.654
1.002726,60.368
1.002862,60.129
1.002999,59.891
1.003135,45.300
1.003271,45.109
1.003407,44.966
1.003544,44.823
1.003680,44.680
1.003816,44.489
1.003953,44.346
1.004089,44.203
1.004225,44.060
1.004361,43.917
1.004498,43.726
1.004634,43.583
1.004770,43.440
1.004907,43.297
1.005043,43.154
1.005179,42.963
1.005316,42.820
1.005452,42.677
1.005588,42.534
1.005724,42.391
1.005861,42.248
1.005997,42.105
1.006133,41.914
1.006270,41.771
