t_s,ch1_uv
0.000000,65.041
0.000136,65.279
0.000273,65.470
0.000409,65.660
0.000545,65.851
0.000681,66.042
0.000818,66.233
0.000954,66.423
0.001090,66.566
0.001227,66.757
0.001363,66.900
0.001499,67.043
0.001636,67.186
0.001772,67.329
0.001908,67.472
0.002044,67.568
0.002181,67.711
0.002317,67.806
0.002453,67.949
0.002590,68.045
0.002726,68.140
0.002862,68.283
0.002999,68.378
0.003135,68.474
0.003271,68.521
0.003407,68.617
0.003544,68.712
0.003680,68.760
0.003816,68.855
0.003953,68.903
0.004089,68.951
0.004225,68.998
0.004361,69.046
0.004498,69.141
0.004634,69.141
0.004770,69.189
0.004907,69.237
0.005043,69.284
0.005179,69.332
0.005316,69.332
0.005452,69.380
0.005588,69.380
0.005724,69.380
0.005861,69.427
0.005997,69.427
0.006133,69.427
0.006270,69.427
0.006406,69.427
0.006542,69.380
0.006678,69.380
0.006815,69.332
0.006951,69.332
0.007087,69.284
0.007224,69.237
0.007360,69.189
0.007496,69.141
0.007633,69.046
0.007769,68.998
0.007905,68.951
0.008041,68.855
0.008178,68.760
0.008314,68.712
0.008450,68.617
0.008587,68.521
0.008723,68.474
0.008859,68.378
0.008996,68.331
0.009132,68.235
0.009268,68.188
0.009404,68.092
0.009541,68.045
0.009677,67.997
0.009813,67.949
0.009950,67.902
0.010086,67.854
0.010222,67.854
0.010358,67.806
0.010495,67.759
0.010631,67.759
0.010767,67.759
0.010904,67.711
0.011040,67.711
0.011176,67.711
0.011313,67.711
0.011449,67.711
0.011585,67.711
0.011721,67.711
0.011858,67.711
0.011994,67.711
0.012130,67.711
0.012267,67.759
0.012403,67.759
0.012539,67.759
0.012675,67.759
0.012812,67.759
0.012948,67.759
0.013084,67.759
0.013221,67.759
0.013357,67.759
0.013493,67.711
0.013630,67.711
0.013766,67.711
0.013902,67.663
0.014038,67.663
0.014175,67.616
0.014311,67.616
0.014447,67.568
0.014584,67.568
0.014720,67.568
0.014856,67.568
0.014993,67.616
0.015129,67.663
0.015265,67.759
0.015401,67.854
0.015538,67.997
0.015674,68.188
0.015810,68.378
0.015947,68.617
0.016083,68.903
0.016219,69.237
0.016355,69.618
0.016492,70.047
0.016628,70.524
0.016764,71.049
0.016901,71.621
0.017037,72.289
0.017173,73.004
0.017310,73.719
0.017446,74.530
0.017582,75.388
0.017718,76.294
0.017855,77.248
0.017991,78.249
0.018127,79.298
0.018264,80.395
0.018400,81.491
0.018536,82.636
0.018672,83.828
0.018809,85.068
0.018945,86.308
0.019081,87.547
0.019218,88.882
0.019354,90.170
0.019490,91.553
0.019627,92.888
0.019763,94.271
0.019899,95.701
0.020035,97.084
0.020172,98.515
0.020308,99.945
0.020444,101.423
0.020581,102.854
0.020717,104.284
0.020853,105.762
0.020990,107.193
0.021126,108.576
0.021262,110.006
0.021398,111.389
0.021535,112.724
0.021671,114.059
0.021807,115.347
0.021944,116.634
0.022080,117.826
0.022216,118.971
0.022352,120.115
0.022489,121.164
0.022625,122.213
0.022761,123.167
0.022898,124.121
0.023034,124.979
0.023170,125.790
0.023307,126.505
0.023443,127.220
0.023579,127.840
0.023715,128.412
0.023852,128.984
0.023988,129.414
0.024124,129.843
0.024261,130.272
0.024397,130.606
0.024533,130.939
0.024669,131.226
0.024806,131.512
0.024942,131.750
0.025078,132.036
0.025215,132.275
0.025351,132.561
0.025487,132.847
0.025624,133.133
0.025760,133.419
0.025896,133.753
0.026032,134.134
0.026169,134.468
0.026305,134.897
0.026441,135.279
0.026578,135.756
0.026714,136.185
0.026850,136.662
0.026987,137.138
0.027123,137.615
0.027259,138.092
0.027395,138.569
0.027532,139.046
0.027668,139.475
0.027804,139.952
0.027941,140.381
0.028077,140.810
0.028213,141.191
0.028349,141.525
0.028486,141.859
0.028622,142.193
0.028758,142.431
0.028895,142.670
0.029031,142.908
0.029167,143.051
0.029304,143.194
0.029440,143.290
0.029576,143.385
0.029712,143.433
0.029849,143.433
0.029985,143.385
0.030121,143.337
0.030258,143.242
0.030394,143.147
0.030530,143.003
0.030666,142.813
0.030803,142.622
0.030939,142.384
0.031075,142.193
0.031212,141.954
0.031348,141.716
0.031484,141.478
0.031621,141.239
0.031757,141.001
0.031893,140.762
0.032029,140.524
0.032166,140.285
0.032302,140.095
0.032438,139.856
0.032575,139.618
0.032711,139.427
0.032847,139.189
0.032984,138.950
0.033120,138.664
0.033256,138.378
0.033392,138.092
0.033529,137.758
0.033665,137.377
0.033801,136.995
0.033938,136.566
0.034074,136.089
0.034210,135.565
0.034346,134.993
0.034483,134.373
0.034619,133.705
0.034755,132.990
0.034892,132.227
0.035028,131.416
0.035164,130.510
0.035301,129.557
0.035437,128.555
0.035573,127.506
0.035709,126.410
0.035846,125.217
0.035982,124.025
0.036118,122.786
0.036255,121.498
0.036391,120.163
0.036527,118.828
0.036663,117.445
0.036800,116.062
0.036936,114.632
0.037072,113.201
0.037209,111.771
0.037345,110.340
0.037481,108.910
0.037618,107.479
0.037754,106.049
0.037890,104.570
0.038026,103.140
0.038163,101.709
0.038299,100.279
0.038435,98.848
0.038572,97.466
0.038708,96.083
0.038844,94.700
0.038981,93.317
0.039117,91.982
0.039253,90.694
0.039389,89.455
0.039526,88.263
0.039662,87.070
0.039798,85.926
0.039935,84.877
0.040071,83.828
0.040207,82.874
0.040343,81.921
0.040480,81.062
0.040616,80.204
0.040752,79.393
0.040889,78.630
0.041025,77.915
0.041161,77.200
0.041298,76.485
0.041434,75.817
0.041570,75.150
0.041706,74.482
0.041843,73.814
0.041979,73.147
0.042115,72.479
0.042252,71.764
0.042388,71.049
0.042524,70.286
0.042660,69.523
0.042797,68.760
0.042933,67.949
0.043069,67.091
0.043206,66.233
0.043342,65.327
0.043478,64.421
0.043615,63.515
0.043751,62.561
0.043887,61.607
0.044023,60.606
0.044160,59.605
0.044296,58.603
0.044432,57.554
0.044569,56.553
0.044705,55.504
0.044841,54.407
0.044978,53.358
0.045114,52.261
0.045250,51.165
0.045386,50.068
0.045523,48.923
0.045659,47.779
0.045795,46.635
0.045932,45.443
0.046068,44.250
0.046204,43.058
0.046340,41.819
0.046477,40.579
0.046613,39.339
0.046749,38.052
0.046886,36.764
0.047022,35.429
0.047158,34.094
0.047295,32.759
0.047431,31.376
0.047567,29.945
0.047703,28.515
0.047840,27.037
0.047976,25.511
0.048112,23.985
0.048249,22.459
0.048385,20.885
0.048521,19.264
0.048657,17.643
0.048794,16.022
0.048930,14.400
0.049066,12.732
0.049203,11.063
0.049339,9.346
0.049475,7.677
0.049612,5.960
0.049748,4.292
0.049884,2.575
0.050020,0.858
0.050157,-0.858
0.050293,-2.575
0.050429,-4.339
0.050566,-6.056
0.050702,-7.820
0.050838,-9.584
0.050975,-11.396
0.051111,-13.161
0.051247,-14.925
0.051383,-16.737
0.051520,-18.549
0.051656,-20.313
0.051792,-22.125
0.051929,-23.937
0.052065,-25.797
0.052201,-27.609
0.052337,-29.469
0.052474,-31.376
0.052610,-33.283
0.052746,-35.191
0.052883,-37.146
0.053019,-39.148
0.053155,-41.151
0.053292,-43.201
0.053428,-45.252
0.053564,-47.350
0.053700,-49.448
0.053837,-51.594
0.053973,-53.787
0.054109,-55.981
0.054246,-58.174
0.054382,-60.415
0.054518,-62.656
0.054654,-64.898
0.054791,-67.186
0.054927,-69.427
0.055063,-71.716
0.055200,-74.005
0.055336,-76.294
0.055472,-78.583
0.055609,-80.824
0.055745,-83.065
0.055881,-85.306
0.056017,-87.500
0.056154,-89.693
0.056290,-91.839
0.056426,-93.937
0.056563,-96.035
0.056699,-98.085
0.056835,-100.088
0.056972,-102.091
0.057108,-103.998
0.057244,-105.906
0.057380,-107.718
0.057517,-109.529
0.057653,-111.294
0.057789,-113.010
0.057926,-114.679
0.058062,-116.301
0.058198,-117.922
0.058334,-119.495
0.058471,-121.069
0.058607,-122.595
0.058743,-124.121
0.058880,-125.647
0.059016,-127.172
0.059152,-128.698
0.059289,-130.224
0.059425,-131.750
0.059561,-133.324
0.059697,-134.850
0.059834,-136.423
0.059970,-138.044
0.060106,-139.666
0.060243,-141.287
0.060379,-142.956
0.060515,-144.672
0.060651,-146.389
0.060788,-148.106
0.060924,-149.822
0.061060,-151.587
0.061197,-153.351
0.061333,-155.067
0.061469,-156.784
0.061606,-158.501
0.061742,-160.217
0.061878,-161.886
0.062014,-163.507
0.062151,-165.129
0.062287,-166.655
0.062423,-168.180
0.062560,-169.659
0.062696,-171.089
0.062832,-172.472
0.062969,-173.807
0.063105,-175.095
0.063241,-176.334
0.063377,-177.526
0.063514,-178.671
0.063650,-179.815
0.063786,-180.864
0.063923,-181.913
0.064059,-182.962
0.064195,-183.964
0.064331,-184.917
0.064468,-185.919
0.064604,-186.872
0.064740,-187.826
0.064877,-188.780
0.065013,-189.734
0.065149,-190.687
0.065286,-191.689
0.065422,-192.690
0.065558,-193.691
0.065694,-194.693
0.065831,-195.742
0.065967,-196.838
0.066103,-197.887
0.066240,-199.032
0.066376,-200.176
0.066512,-201.321
0.066648,-202.465
0.066785,-203.657
0.066921,-204.849
0.067057,-206.041
0.067194,-207.233
0.067330,-208.473
0.067466,-209.618
0.067603,-210.810
0.067739,-212.002
0.067875,-213.146
0.068011,-214.243
0.068148,-215.387
0.068284,-216.484
0.068420,-217.533
0.068557,-218.582
0.068693,-219.631
0.068829,-220.633
0.068966,-221.586
0.069102,-222.540
0.069238,-223.494
0.069374,-224.400
0.069511,-225.258
0.069647,-226.116
0.069783,-226.974
0.069920,-227.737
0.070056,-228.500
0.070192,-229.216
0.070328,-229.931
0.070465,-230.598
0.070601,-231.218
0.070737,-231.791
0.070874,-232.315
0.071010,-232.792
0.071146,-233.269
0.071283,-233.650
0.071419,-233.984
0.071555,-234.318
0.071691,-234.604
0.071828,-234.795
0.071964,-234.985
0.072100,-235.081
0.072237,-235.176
0.072373,-235.176
0.072509,-235.176
0.072645,-235.128
0.072782,-235.033
0.072918,-234.890
0.073054,-234.747
0.073191,-234.556
0.073327,-234.318
0.073463,-234.127
0.073600,-233.841
0.073736,-233.603
0.073872,-233.316
0.074008,-233.030
0.074145,-232.744
0.074281,-232.458
0.074417,-232.124
0.074554,-231.791
0.074690,-231.457
0.074826,-231.075
0.074963,-230.694
0.075099,-230.265
0.075235,-229.788
0.075371,-229.311
0.075508,-228.834
0.075644,-228.262
0.075780,-227.690
0.075917,-227.022
0.076053,-226.307
0.076189,-225.592
0.076325,-224.733
0.076462,-223.875
0.076598,-222.921
0.076734,-221.872
0.076871,-220.823
0.077007,-219.679
0.077143,-218.439
0.077280,-217.152
0.077416,-215.816
0.077552,-214.386
0.077688,-212.908
0.077825,-211.334
0.077961,-209.761
0.078097,-208.092
0.078234,-206.375
0.078370,-204.611
0.078506,-202.751
0.078642,-200.891
0.078779,-198.984
0.078915,-197.029
0.079051,-195.026
0.079188,-192.976
0.079324,-190.878
0.079460,-188.828
0.079597,-186.682
0.079733,-184.536
0.079869,-182.390
0.080005,-180.244
0.080142,-178.051
0.080278,-175.858
0.080414,-173.664
0.080551,-171.423
0.080687,-169.230
0.080823,-167.036
0.080960,-164.843
0.081096,-162.601
0.081232,-160.408
0.081368,-158.215
0.081505,-156.021
0.081641,-153.875
0.081777,-151.682
0.081914,-149.536
0.082050,-147.390
0.082186,-145.292
0.082322,-143.194
0.082459,-141.096
0.082595,-138.998
0.082731,-136.948
0.082868,-134.897
0.083004,-132.847
0.083140,-130.844
0.083277,-128.889
0.083413,-126.886
0.083549,-124.931
0.083685,-123.024
0.083822,-121.117
0.083958,-119.209
0.084094,-117.350
0.084231,-115.490
0.084367,-113.630
0.084503,-111.818
0.084639,-110.006
0.084776,-108.242
0.084912,-106.478
0.085048,-104.713
0.085185,-102.997
0.085321,-101.280
0.085457,-99.564
0.085594,-97.895
0.085730,-96.226
0.085866,-94.604
0.086002,-92.983
0.086139,-91.362
0.086275,-89.741
0.086411,-88.167
0.086548,-86.594
0.086684,-85.020
0.086820,-83.494
0.086957,-81.921
0.087093,-80.395
0.087229,-78.821
0.087365,-77.295
0.087502,-75.769
0.087638,-74.244
0.087774,-72.670
0.087911,-71.144
0.088047,-69.618
0.088183,-68.045
0.088319,-66.519
0.088456,-64.993
0.088592,-63.419
0.088728,-61.846
0.088865,-60.320
0.089001,-58.746
0.089137,-57.173
0.089274,-55.599
0.089410,-54.026
0.089546,-52.452
0.089682,-50.879
0.089819,-49.305
0.089955,-47.731
0.090091,-46.158
0.090228,-44.632
0.090364,-43.058
0.090500,-41.533
0.090636,-40.007
0.090773,-38.481
0.090909,-37.003
0.091045,-35.524
0.091182,-34.094
0.091318,-32.616
0.091454,-31.233
0.091591,-29.802
0.091727,-28.419
0.091863,-27.084
0.091999,-25.749
0.092136,-24.414
0.092272,-23.127
0.092408,-21.839
0.092545,-20.599
0.092681,-19.360
0.092817,-18.120
0.092954,-16.928
0.093090,-15.783
0.093226,-14.591
0.093362,-13.447
0.093499,-12.302
0.093635,-11.206
0.093771,-10.061
0.093908,-8.965
0.094044,-7.868
0.094180,-6.819
0.094316,-5.722
0.094453,-4.673
0.094589,-3.624
0.094725,-2.575
0.094862,-1.574
0.094998,-0.525
0.095134,0.429
0.095271,1.478
0.095407,2.480
0.095543,3.481
0.095679,4.482
0.095816,5.436
0.095952,6.437
0.096088,7.439
0.096225,8.392
0.096361,9.394
0.096497,10.347
0.096634,11.349
0.096770,12.302
0.096906,13.256
0.097042,14.210
0.097179,15.163
0.097315,16.117
0.097451,17.071
0.097588,17.977
0.097724,18.930
0.097860,19.836
0.097996,20.742
0.098133,21.696
0.098269,22.602
0.098405,23.508
0.098542,24.414
0.098678,25.272
0.098814,26.178
0.098951,27.084
0.099087,27.943
0.099223,28.849
0.099359,29.707
0.099496,30.613
0.099632,31.471
0.099768,32.330
0.099905,33.188
0.100041,34.046
0.100177,34.904
0.100313,35.763
0.100450,36.621
0.100586,37.432
0.100722,38.242
0.100859,39.101
0.100995,39.911
0.101131,40.722
0.101268,41.485
0.101404,42.295
0.101540,43.058
0.101676,43.821
0.101813,44.584
0.101949,45.347
0.102085,46.110
0.102222,46.825
0.102358,47.588
0.102494,48.304
0.102631,49.019
0.102767,49.686
0.102903,50.402
0.103039,51.069
0.103176,51.737
0.103312,52.404
0.103448,53.024
0.103585,53.692
0.103721,54.312
0.103857,54.932
0.103993,55.504
0.104130,56.124
0.104266,56.696
0.104402,57.316
0.104539,57.888
0.104675,58.460
0.104811,58.985
0.104948,59.557
0.105084,60.129
0.105220,60.654
0.105356,61.226
0.105493,61.750
0.105629,62.275
0.105765,62.799
0.105902,63.324
0.106038,63.848
0.106174,64.373
0.106310,64.898
0.106447,65.374
0.106583,65.899
0.106719,66.376
0.106856,66.853
0.106992,67.329
0.107128,67.806
0.107265,68.235
0.107401,68.712
0.107537,69.141
0.107673,69.618
0.107810,70.047
0.107946,70.477
0.108082,70.953
0.108219,71.383
0.108355,71.859
0.108491,72.289
0.108628,72.765
0.108764,73.195
0.108900,73.671
0.109036,74.148
0.109173,74.625
0.109309,75.054
0.109445,75.531
0.109582,76.008
0.109718,76.437
0.109854,76.914
0.109990,77.343
0.110127,77.772
0.110263,78.201
0.110399,78.630
0.110536,79.012
0.110672,79.441
0.110808,79.823
0.110945,80.156
0.111081,80.538
0.111217,80.872
0.111353,81.158
0.111490,81.491
0.111626,81.778
0.111762,82.016
0.111899,82.302
0.112035,82.541
0.112171,82.779
0.112307,82.970
0.112444,83.208
0.112580,83.399
0.112716,83.590
0.112853,83.733
0.112989,83.923
0.113125,84.066
0.113262,84.209
0.113398,84.352
0.113534,84.496
0.113670,84.639
0.113807,84.782
0.113943,84.877
0.114079,85.020
0.114216,85.163
0.114352,85.258
0.114488,85.402
0.114625,85.497
0.114761,85.592
0.114897,85.735
0.115033,85.831
0.115170,85.974
0.115306,86.069
0.115442,86.212
0.115579,86.308
0.115715,86.451
0.115851,86.594
0.115987,86.689
0.116124,86.832
0.116260,86.927
0.116396,87.070
0.116533,87.214
0.116669,87.309
0.116805,87.452
0.116942,87.595
0.117078,87.738
0.117214,87.833
0.117350,87.976
0.117487,88.120
0.117623,88.263
0.117759,88.358
0.117896,88.501
0.118032,88.644
0.118168,88.739
0.118304,88.882
0.118441,89.025
0.118577,89.121
0.118713,89.216
0.118850,89.359
0.118986,89.455
0.119122,89.550
0.119259,89.645
0.119395,89.741
0.119531,89.836
0.119667,89.931
0.119804,89.979
0.119940,90.075
0.120076,90.122
0.120213,90.218
0.120349,90.265
0.120485,90.313
0.120622,90.361
0.120758,90.408
0.120894,90.408
0.121030,90.456
0.121167,90.504
0.121303,90.504
0.121439,90.551
0.121576,90.551
0.121712,90.551
0.121848,90.599
0.121984,90.599
0.122121,90.599
0.122257,90.599
0.122393,90.599
0.122530,90.599
0.122666,90.551
0.122802,90.551
0.122939,90.551
0.123075,90.551
0.123211,90.551
0.123347,90.551
0.123484,90.504
0.123620,90.504
0.123756,90.504
0.123893,90.504
0.124029,90.456
0.124165,90.456
0.124301,90.456
0.124438,90.456
0.124574,90.408
0.124710,90.408
0.124847,90.408
0.124983,90.361
0.125119,90.313
0.125256,90.313
0.125392,90.265
0.125528,90.218
0.125664,90.170
0.125801,90.122
0.125937,90.075
0.126073,89.979
0.126210,89.884
0.126346,89.836
0.126482,89.741
0.126619,89.645
0.126755,89.550
0.126891,89.455
0.127027,89.312
0.127164,89.216
0.127300,89.121
0.127436,89.025
0.127573,88.930
0.127709,88.835
0.127845,88.787
0.127981,88.692
0.128118,88.644
0.128254,88.549
0.128390,88.501
0.128527,88.453
0.128663,88.406
0.128799,88.310
0.128936,88.263
0.129072,88.215
0.129208,88.167
0.129344,88.120
0.129481,88.024
0.129617,87.976
0.129753,87.881
0.129890,87.786
0.130026,87.690
0.130162,87.595
0.130298,87.500
0.130435,87.357
0.130571,87.214
0.130707,87.070
0.130844,86.927
0.130980,86.737
0.131116,86.546
0.131253,86.355
0.131389,86.164
0.131525,85.926
0.131661,85.688
0.131798,85.402
0.131934,85.163
0.132070,84.877
0.132207,84.591
0.132343,84.305
0.132479,83.971
0.132616,83.685
0.132752,83.351
0.132888,83.017
0.133024,82.684
0.133161,82.350
0.133297,82.016
0.133433,81.682
0.133570,81.348
0.133706,81.015
0.133842,80.681
0.133978,80.347
0.134115,80.013
0.134251,79.679
0.134387,79.346
0.134524,79.012
0.134660,78.678
0.134796,78.392
0.134933,78.058
0.135069,77.772
0.135205,77.486
0.135341,77.200
0.135478,76.914
0.135614,76.628
0.135750,76.342
0.135887,76.103
0.136023,75.817
0.136159,75.579
0.136295,75.293
0.136432,75.054
0.136568,74.816
0.136704,74.577
0.136841,74.339
0.136977,74.100
0.137113,73.862
0.137250,73.624
0.137386,73.385
0.137522,73.147
0.137658,72.956
0.137795,72.718
0.137931,72.479
0.138067,72.241
0.138204,72.050
0.138340,71.812
0.138476,71.573
0.138613,71.383
0.138749,71.144
0.138885,70.906
0.139021,70.667
0.139158,70.429
0.139294,70.190
0.139430,70.000
0.139567,69.761
0.139703,69.523
0.139839,69.284
0.139975,69.046
0.140112,68.808
0.140248,68.569
0.140384,68.331
0.140521,68.092
0.140657,67.902
0.140793,67.663
0.140930,67.472
0.141066,67.234
0.141202,67.043
0.141338,66.853
0.141475,66.614
0.141611,66.423
0.141747,66.233
0.141884,65.994
0.142020,65.804
0.142156,65.565
0.142292,65.327
0.142429,65.136
0.142565,64.898
0.142701,64.659
0.142838,64.373
0.142974,64.135
0.143110,63.848
0.143247,63.610
0.143383,63.324
0.143519,63.038
0.143655,62.752
0.143792,62.418
0.143928,62.132
0.144064,61.798
0.144201,61.464
0.144337,61.131
0.144473,60.797
0.144610,60.415
0.144746,60.081
0.144882,59.700
0.145018,59.319
0.145155,58.985
0.145291,58.603
0.145427,58.222
0.145564,57.840
0.145700,57.459
0.145836,57.077
0.145972,56.696
0.146109,56.314
0.146245,55.933
0.146381,55.552
0.146518,55.218
0.146654,54.836
0.146790,54.502
0.146927,54.169
0.147063,53.835
0.147199,53.549
0.147335,53.215
0.147472,52.929
0.147608,52.595
0.147744,52.309
0.147881,52.023
0.148017,51.737
0.148153,51.451
0.148289,51.165
0.148426,50.879
0.148562,50.592
0.148698,50.306
0.148835,50.020
0.148971,49.782
0.149107,49.496
0.149244,49.210
0.149380,48.923
0.149516,48.637
0.149652,48.351
0.149789,48.065
0.149925,47.779
0.150061,47.493
0.150198,47.207
0.150334,46.921
0.150470,46.587
0.150607,46.301
0.150743,46.015
0.150879,45.729
0.151015,45.395
0.151152,45.109
0.151288,44.775
0.151424,44.489
0.151561,44.155
0.151697,43.869
0.151833,43.535
0.151969,43.249
0.152106,42.915
0.152242,42.629
0.152378,42.295
0.152515,42.009
0.152651,41.676
0.152787,41.389
0.152924,41.103
0.153060,40.817
0.153196,40.579
0.153332,40.293
0.153469,40.007
0.153605,39.768
0.153741,39.530
0.153878,39.244
0.154014,39.005
0.154150,38.767
0.154286,38.528
0.154423,38.290
0.154559,38.004
0.154695,37.766
0.154832,37.527
0.154968,37.241
0.155104,37.003
0.155241,36.716
0.155377,36.430
0.155513,36.192
0.155649,35.906
0.155786,35.572
0.155922,35.286
0.156058,34.952
0.156195,34.618
0.156331,34.285
0.156467,33.951
0.156604,33.617
0.156740,33.236
0.156876,32.902
0.157012,32.520
0.157149,32.139
0.157285,31.757
0.157421,31.376
0.157558,30.994
0.157694,30.565
0.157830,30.184
0.157966,29.755
0.158103,29.373
0.158239,28.944
0.158375,28.563
0.158512,28.133
0.158648,27.752
0.158784,27.323
0.158921,26.941
0.159057,26.560
0.159193,26.178
0.159329,25.845
0.159466,25.463
0.159602,25.129
0.159738,24.843
0.159875,24.509
0.160011,24.223
0.160147,23.937
0.160283,23.651
0.160420,23.413
0.160556,23.127
0.160692,22.888
0.160829,22.650
0.160965,22.411
0.161101,22.173
0.161238,21.935
0.161374,21.696
0.161510,21.458
0.161646,21.267
0.161783,21.029
0.161919,20.790
0.162055,20.552
0.162192,20.313
0.162328,20.075
0.162464,19.836
0.162601,19.550
0.162737,19.312
0.162873,19.026
0.163009,18.740
0.163146,18.406
0.163282,18.120
0.163418,17.786
0.163555,17.452
0.163691,17.118
0.163827,16.785
0.163963,16.403
0.164100,16.069
0.164236,15.688
0.164372,15.306
0.164509,14.925
0.164645,14.544
0.164781,14.162
0.164918,13.781
0.165054,13.399
0.165190,12.970
0.165326,12.589
0.165463,12.207
0.165599,11.826
0.165735,11.396
0.165872,11.015
0.166008,10.681
0.166144,10.300
0.166280,9.918
0.166417,9.537
0.166553,9.203
0.166689,8.869
0.166826,8.535
0.166962,8.202
0.167098,7.868
0.167235,7.534
0.167371,7.248
0.167507,6.962
0.167643,6.676
0.167780,6.390
0.167916,6.104
0.168052,5.865
0.168189,5.579
0.168325,5.341
0.168461,5.102
0.168598,4.864
0.168734,4.625
0.168870,4.435
0.169006,4.196
0.169143,4.005
0.169279,3.815
0.169415,3.624
0.169552,3.433
0.169688,3.242
0.169824,3.052
0.169960,2.861
0.170097,2.670
0.170233,2.480
0.170369,2.289
0.170506,2.050
0.170642,1.860
0.170778,1.669
0.170915,1.478
0.171051,1.240
0.171187,1.049
0.171323,0.858
0.171460,0.620
0.171596,0.381
0.171732,0.191
0.171869,0.000
0.172005,-0.191
0.172141,-0.429
0.172277,-0.620
0.172414,-0.811
0.172550,-1.049
0.172686,-1.240
0.172823,-1.431
0.172959,-1.621
0.173095,-1.812
0.173232,-2.003
0.173368,-2.193
0.173504,-2.337
0.173640,-2.527
0.173777,-2.718
0.173913,-2.909
0.174049,-3.099
0.174186,-3.290
0.174322,-3.433
0.174458,-3.624
0.174595,-3.815
0.174731,-4.005
0.174867,-4.196
0.175003,-4.387
0.175140,-4.578
0.175276,-4.768
0.175412,-5.007
0.175549,-5.198
0.175685,-5.436
0.175821,-5.627
0.175957,-5.865
0.176094,-6.104
0.176230,-6.342
0.176366,-6.580
0.176503,-6.819
0.176639,-7.105
0.176775,-7.343
0.176912,-7.629
0.177048,-7.868
0.177184,-8.154
0.177320,-8.440
0.177457,-8.726
0.177593,-8.965
0.177729,-9.251
0.177866,-9.537
0.178002,-9.823
0.178138,-10.061
0.178274,-10.347
0.178411,-10.586
0.178547,-10.824
0.178683,-11.015
0.178820,-11.206
0.178956,-11.396
0.179092,-11.587
0.179229,-11.730
0.179365,-11.873
0.179501,-12.016
0.179637,-12.159
0.179774,-12.255
0.179910,-12.398
0.180046,-12.493
0.180183,-12.589
0.180319,-12.684
0.180455,-12.827
0.180592,-12.922
0.180728,-13.018
0.180864,-13.161
0.181000,-13.256
0.181137,-13.399
0.181273,-13.542
0.181409,-13.733
0.181546,-13.876
0.181682,-14.067
0.181818,-14.257
0.181954,-14.448
0.182091,-14.687
0.182227,-14.877
0.182363,-15.116
0.182500,-15.354
0.182636,-15.593
0.182772,-15.879
0.182909,-16.117
0.183045,-16.403
0.183181,-16.642
0.183317,-16.928
0.183454,-17.214
0.183590,-17.500
0.183726,-17.786
0.183863,-18.072
0.183999,-18.311
0.184135,-18.597
0.184272,-18.883
0.184408,-19.121
0.184544,-19.407
0.184680,-19.646
0.184817,-19.884
0.184953,-20.075
0.185089,-20.313
0.185226,-20.504
0.185362,-20.695
0.185498,-20.838
0.185634,-21.029
0.185771,-21.172
0.185907,-21.315
0.186043,-21.458
0.186180,-21.553
0.186316,-21.696
0.186452,-21.791
0.186589,-21.887
0.186725,-21.982
0.186861,-22.078
0.186997,-22.173
0.187134,-22.268
0.187270,-22.364
0.187406,-22.459
0.187543,-22.554
0.187679,-22.650
0.187815,-22.745
0.187951,-22.888
0.188088,-22.984
0.188224,-23.079
0.188360,-23.222
0.188497,-23.317
0.188633,-23.460
0.188769,-23.603
0.188906,-23.699
0.189042,-23.842
0.189178,-23.985
0.189314,-24.080
0.189451,-24.223
0.189587,-24.319
0.189723,-24.462
0.189860,-24.605
0.189996,-24.700
0.190132,-24.796
0.190269,-24.939
0.190405,-25.034
0.190541,-25.177
0.190677,-25.272
0.190814,-25.415
0.190950,-25.558
0.191086,-25.654
0.191223,-25.749
0.191359,-25.892
0.191495,-25.988
0.191631,-26.083
0.191768,-26.178
0.191904,-26.274
0.192040,-26.369
0.192177,-26.464
0.192313,-26.560
0.192449,-26.655
0.192586,-26.703
0.192722,-26.798
0.192858,-26.894
0.192994,-26.989
0.193131,-27.084
0.193267,-27.132
0.193403,-27.227
0.193540,-27.323
0.193676,-27.418
0.193812,-27.514
0.193948,-27.657
0.194085,-27.752
0.194221,-27.847
0.194357,-27.943
0.194494,-28.086
0.194630,-28.181
0.194766,-28.324
0.194903,-28.419
0.195039,-28.563
0.195175,-28.706
0.195311,-28.849
0.195448,-28.992
0.195584,-29.087
0.195720,-29.230
0.195857,-29.373
0.195993,-29.564
0.196129,-29.707
0.196266,-29.850
0.196402,-29.993
0.196538,-30.136
0.196674,-30.279
0.196811,-30.422
0.196947,-30.565
0.197083,-30.708
0.197220,-30.851
0.197356,-30.947
0.197492,-31.090
0.197628,-31.185
0.197765,-31.281
0.197901,-31.376
0.198037,-31.424
0.198174,-31.519
0.198310,-31.567
0.198446,-31.614
0.198583,-31.614
0.198719,-31.662
0.198855,-31.662
0.198991,-31.662
0.199128,-31.662
0.199264,-31.662
0.199400,-31.662
0.199537,-31.614
0.199673,-31.614
0.199809,-31.614
0.199945,-31.567
0.200082,-31.567
0.200218,-31.519
0.200354,-31.471
0.200491,-31.471
0.200627,-31.471
0.200763,-31.424
0.200900,-31.424
0.201036,-31.424
0.201172,-31.376
0.201308,-31.376
0.201445,-31.376
0.201581,-31.424
0.201717,-31.424
0.201854,-31.424
0.201990,-31.471
0.202126,-31.471
0.202263,-31.519
0.202399,-31.567
0.202535,-31.614
0.202671,-31.662
0.202808,-31.710
0.202944,-31.805
0.203080,-31.853
0.203217,-31.900
0.203353,-31.996
0.203489,-32.043
0.203625,-32.091
0.203762,-32.187
0.203898,-32.234
0.204034,-32.282
0.204171,-32.330
0.204307,-32.330
0.204443,-32.377
0.204580,-32.330
0.204716,-32.330
0.204852,-32.282
0.204988,-32.234
0.205125,-32.187
0.205261,-32.139
0.205397,-32.043
0.205534,-31.996
0.205670,-31.900
0.205806,-31.805
0.205942,-31.710
0.206079,-31.614
0.206215,-31.519
0.206351,-31.424
0.206488,-31.328
0.206624,-31.281
0.206760,-31.185
0.206897,-31.137
0.207033,-31.090
0.207169,-31.042
0.207305,-31.042
0.207442,-30.994
0.207578,-30.994
0.207714,-30.994
0.207851,-31.042
0.207987,-31.090
0.208123,-31.137
0.208260,-31.185
0.208396,-31.281
0.208532,-31.376
0.208668,-31.471
0.208805,-31.567
0.208941,-31.662
0.209077,-31.805
0.209214,-31.948
0.209350,-32.091
0.209486,-32.234
0.209622,-32.377
0.209759,-32.520
0.209895,-32.711
0.210031,-32.854
0.210168,-33.045
0.210304,-33.188
0.210440,-33.379
0.210577,-33.522
0.210713,-33.712
0.210849,-33.855
0.210985,-33.998
0.211122,-34.142
0.211258,-34.237
0.211394,-34.380
0.211531,-34.475
0.211667,-34.571
0.211803,-34.666
0.211939,-34.761
0.212076,-34.809
0.212212,-34.857
0.212348,-34.904
0.212485,-34.904
0.212621,-34.952
0.212757,-34.952
0.212894,-34.952
0.213030,-34.904
0.213166,-34.904
0.213302,-34.857
0.213439,-34.809
0.213575,-34.761
0.213711,-34.666
0.213848,-34.618
0.213984,-34.523
0.214120,-34.428
0.214257,-34.332
0.214393,-34.237
0.214529,-34.142
0.214665,-34.046
0.214802,-33.951
0.214938,-33.855
0.215074,-33.760
0.215211,-33.665
0.215347,-33.569
0.215483,-33.474
0.215619,-33.426
0.215756,-33.331
0.215892,-33.236
0.216028,-33.140
0.216165,-33.045
0.216301,-32.997
0.216437,-32.902
0.216574,-32.806
0.216710,-32.711
0.216846,-32.616
0.216982,-32.520
0.217119,-32.425
0.217255,-32.330
0.217391,-32.234
0.217528,-32.091
0.217664,-31.996
0.217800,-31.900
0.217936,-31.757
0.218073,-31.662
0.218209,-31.519
0.218345,-31.424
0.218482,-31.281
0.218618,-31.185
0.218754,-31.090
0.218891,-30.994
0.219027,-30.899
0.219163,-30.804
0.219299,-30.708
0.219436,-30.661
0.219572,-30.613
0.219708,-30.565
0.219845,-30.518
0.219981,-30.470
0.220117,-30.422
0.220254,-30.422
0.220390,-30.422
0.220526,-30.422
0.220662,-30.422
0.220799,-30.422
0.220935,-30.470
0.221071,-30.470
0.221208,-30.518
0.221344,-30.565
0.221480,-30.565
0.221616,-30.613
0.221753,-30.661
0.221889,-30.708
0.222025,-30.708
0.222162,-30.756
0.222298,-30.804
0.222434,-30.851
0.222571,-30.851
0.222707,-30.899
0.222843,-30.899
0.222979,-30.947
0.223116,-30.947
0.223252,-30.947
0.223388,-30.947
0.223525,-30.899
0.223661,-30.899
0.223797,-30.851
0.223933,-30.804
0.224070,-30.756
0.224206,-30.661
0.224342,-30.565
0.224479,-30.470
0.224615,-30.375
0.224751,-30.279
0.224888,-30.136
0.225024,-29.993
0.225160,-29.850
0.225296,-29.707
0.225433,-29.612
0.225569,-29.469
0.225705,-29.325
0.225842,-29.182
0.225978,-29.039
0.226114,-28.896
0.226251,-28.753
0.226387,-28.610
0.226523,-28.515
0.226659,-28.372
0.226796,-28.276
0.226932,-28.181
0.227068,-28.038
0.227205,-27.943
0.227341,-27.895
0.227477,-27.800
0.227613,-27.704
0.227750,-27.657
0.227886,-27.561
0.228022,-27.514
0.228159,-27.466
0.228295,-27.418
0.228431,-27.370
0.228568,-27.370
0.228704,-27.323
0.228840,-27.275
0.228976,-27.275
0.229113,-27.227
0.229249,-27.227
0.229385,-27.180
0.229522,-27.132
0.229658,-27.084
0.229794,-26.989
0.229930,-26.941
0.230067,-26.798
0.230203,-26.703
0.230339,-26.560
0.230476,-26.369
0.230612,-26.178
0.230748,-25.988
0.230885,-25.749
0.231021,-25.511
0.231157,-25.272
0.231293,-25.034
0.231430,-24.748
0.231566,-24.462
0.231702,-24.223
0.231839,-23.937
0.231975,-23.699
0.232111,-23.413
0.232248,-23.174
0.232384,-22.936
0.232520,-22.697
0.232656,-22.507
0.232793,-22.316
0.232929,-22.125
0.233065,-21.982
0.233202,-21.839
0.233338,-21.696
0.233474,-21.601
0.233610,-21.505
0.233747,-21.410
0.233883,-21.362
0.234019,-21.362
0.234156,-21.315
0.234292,-21.315
0.234428,-21.315
0.234565,-21.362
0.234701,-21.410
0.234837,-21.458
0.234973,-21.505
0.235110,-21.601
0.235246,-21.648
0.235382,-21.744
0.235519,-21.839
0.235655,-21.935
0.235791,-22.030
0.235927,-22.125
0.236064,-22.173
0.236200,-22.268
0.236336,-22.316
0.236473,-22.364
0.236609,-22.364
0.236745,-22.411
0.236882,-22.411
0.237018,-22.364
0.237154,-22.364
0.237290,-22.316
0.237427,-22.268
0.237563,-22.221
0.237699,-22.173
0.237836,-22.078
0.237972,-21.982
0.238108,-21.887
0.238245,-21.791
0.238381,-21.696
0.238517,-21.601
0.238653,-21.505
0.238790,-21.362
0.238926,-21.267
0.239062,-21.172
0.239199,-21.029
0.239335,-20.933
0.239471,-20.838
0.239607,-20.695
0.239744,-20.599
0.239880,-20.504
0.240016,-20.409
0.240153,-20.313
0.240289,-20.218
0.240425,-20.123
0.240562,-20.027
0.240698,-19.932
0.240834,-19.884
0.240970,-19.789
0.241107,-19.693
0.241243,-19.646
0.241379,-19.550
0.241516,-19.503
0.241652,-19.407
0.241788,-19.360
0.241924,-19.312
0.242061,-19.264
0.242197,-19.169
0.242333,-19.121
0.242470,-19.073
0.242606,-19.026
0.242742,-18.930
0.242879,-18.883
0.243015,-18.787
0.243151,-18.692
0.243287,-18.597
0.243424,-18.549
0.243560,-18.454
0.243696,-18.358
0.243833,-18.263
0.243969,-18.167
0.244105,-18.024
0.244242,-17.929
0.244378,-17.834
0.244514,-17.738
0.244650,-17.643
0.244787,-17.548
0.244923,-17.405
0.245059,-17.309
0.245196,-17.214
0.245332,-17.118
0.245468,-17.023
0.245604,-16.928
0.245741,-16.832
0.245877,-16.737
0.246013,-16.689
0.246150,-16.594
0.246286,-16.499
0.246422,-16.403
0.246559,-16.356
0.246695,-16.260
0.246831,-16.165
0.246967,-16.117
0.247104,-16.022
0.247240,-15.926
0.247376,-15.879
0.247513,-15.783
0.247649,-15.688
0.247785,-15.593
0.247921,-15.545
0.248058,-15.450
0.248194,-15.354
0.248330,-15.259
0.248467,-15.163
0.248603,-15.020
0.248739,-14.925
0.248876,-14.830
0.249012,-14.687
0.249148,-14.544
0.249284,-14.448
0.249421,-14.305
0.249557,-14.114
0.249693,-13.971
0.249830,-13.781
0.249966,-13.638
0.250102,-13.447
0.250239,-13.256
0.250375,-13.065
0.250511,-12.875
0.250647,-12.684
0.250784,-12.541
0.250920,-12.350
0.251056,-12.159
0.251193,-11.969
0.251329,-11.826
0.251465,-11.635
0.251601,-11.492
0.251738,-11.349
0.251874,-11.206
0.252010,-11.063
0.252147,-10.967
0.252283,-10.872
0.252419,-10.729
0.252556,-10.633
0.252692,-10.586
0.252828,-10.490
0.252964,-10.443
0.253101,-10.347
0.253237,-10.300
0.253373,-10.252
0.253510,-10.204
0.253646,-10.157
0.253782,-10.157
0.253918,-10.109
0.254055,-10.061
0.254191,-10.061
0.254327,-10.014
0.254464,-10.014
0.254600,-9.966
0.254736,-9.918
0.254873,-9.918
0.255009,-9.871
0.255145,-9.823
0.255281,-9.727
0.255418,-9.632
0.255554,-9.537
0.255690,-9.441
0.255827,-9.298
0.255963,-9.155
0.256099,-9.012
0.256236,-8.821
0.256372,-8.631
0.256508,-8.440
0.256644,-8.202
0.256781,-7.963
0.256917,-7.772
0.257053,-7.534
0.257190,-7.296
0.257326,-7.105
0.257462,-6.866
0.257598,-6.676
0.257735,-6.437
0.257871,-6.247
0.258007,-6.056
0.258144,-5.913
0.258280,-5.770
0.258416,-5.627
0.258553,-5.484
0.258689,-5.388
0.258825,-5.245
0.258961,-5.198
0.259098,-5.102
0.259234,-5.054
0.259370,-5.054
0.259507,-5.007
0.259643,-5.007
0.259779,-5.007
0.259915,-5.007
0.260052,-5.007
0.260188,-5.054
0.260324,-5.102
0.260461,-5.102
0.260597,-5.150
0.260733,-5.198
0.260870,-5.245
0.261006,-5.293
0.261142,-5.341
0.261278,-5.341
0.261415,-5.388
0.261551,-5.436
0.261687,-5.436
0.261824,-5.436
0.261960,-5.436
0.262096,-5.436
0.262233,-5.388
0.262369,-5.388
0.262505,-5.341
0.262641,-5.245
0.262778,-5.198
0.262914,-5.102
0.263050,-5.007
0.263187,-4.911
0.263323,-4.816
0.263459,-4.721
0.263595,-4.625
0.263732,-4.482
0.263868,-4.339
0.264004,-4.244
0.264141,-4.101
0.264277,-3.958
0.264413,-3.862
0.264550,-3.719
0.264686,-3.576
0.264822,-3.481
0.264958,-3.338
0.265095,-3.242
0.265231,-3.099
0.265367,-3.004
0.265504,-2.861
0.265640,-2.766
0.265776,-2.670
0.265912,-2.575
0.266049,-2.480
0.266185,-2.384
0.266321,-2.289
0.266458,-2.241
0.266594,-2.146
0.266730,-2.098
0.266867,-2.003
0.267003,-1.955
0.267139,-1.860
0.267275,-1.812
0.267412,-1.764
0.267548,-1.669
0.267684,-1.621
0.267821,-1.526
0.267957,-1.431
0.268093,-1.335
0.268230,-1.240
0.268366,-1.097
0.268502,-0.954
0.268638,-0.811
0.268775,-0.668
0.268911,-0.477
0.269047,-0.334
0.269184,-0.143
0.269320,0.000
0.269456,0.143
0.269592,0.334
0.269729,0.525
0.269865,0.715
0.270001,0.906
0.270138,1.049
0.270274,1.240
0.270410,1.383
0.270547,1.574
0.270683,1.717
0.270819,1.860
0.270955,1.955
0.271092,2.098
0.271228,2.193
0.271364,2.289
0.271501,2.384
0.271637,2.432
0.271773,2.480
0.271909,2.527
0.272046,2.575
0.272182,2.575
0.272318,2.623
0.272455,2.623
0.272591,2.623
0.272727,2.575
0.272864,2.575
0.273000,2.527
0.273136,2.527
0.273272,2.480
0.273409,2.432
0.273545,2.432
0.273681,2.384
0.273818,2.337
0.273954,2.289
0.274090,2.241
0.274227,2.241
0.274363,2.193
0.274499,2.193
0.274635,2.193
0.274772,2.193
0.274908,2.193
0.275044,2.241
0.275181,2.289
0.275317,2.289
0.275453,2.337
0.275589,2.384
0.275726,2.432
0.275862,2.527
0.275998,2.575
0.276135,2.623
0.276271,2.718
0.276407,2.766
0.276544,2.861
0.276680,2.956
0.276816,3.004
0.276952,3.099
0.277089,3.195
0.277225,3.242
0.277361,3.338
0.277498,3.386
0.277634,3.481
0.277770,3.529
0.277907,3.624
0.278043,3.672
0.278179,3.719
0.278315,3.815
0.278452,3.862
0.278588,3.910
0.278724,3.958
0.278861,4.005
0.278997,4.053
0.279133,4.101
0.279269,4.148
0.279406,4.196
0.279542,4.244
0.279678,4.292
0.279815,4.339
0.279951,4.387
0.280087,4.435
0.280224,4.482
0.280360,4.482
0.280496,4.530
0.280632,4.625
0.280769,4.673
0.280905,4.721
0.281041,4.816
0.281178,4.911
0.281314,5.007
0.281450,5.102
0.281586,5.198
0.281723,5.341
0.281859,5.484
0.281995,5.627
0.282132,5.817
0.282268,5.960
0.282404,6.151
0.282541,6.294
0.282677,6.485
0.282813,6.676
0.282949,6.866
0.283086,7.010
0.283222,7.200
0.283358,7.343
0.283495,7.486
0.283631,7.629
0.283767,7.772
0.283904,7.868
0.284040,7.963
0.284176,8.059
0.284312,8.154
0.284449,8.202
0.284585,8.202
0.284721,8.249
0.284858,8.249
0.284994,8.249
0.285130,8.202
0.285266,8.202
0.285403,8.154
0.285539,8.106
0.285675,8.059
0.285812,8.011
0.285948,7.915
0.286084,7.868
0.286221,7.772
0.286357,7.725
0.286493,7.629
0.286629,7.534
0.286766,7.439
0.286902,7.391
0.287038,7.296
0.287175,7.200
0.287311,7.153
0.287447,7.105
0.287583,7.057
0.287720,7.010
0.287856,7.010
0.287992,7.010
0.288129,7.010
0.288265,7.057
0.288401,7.105
0.288538,7.153
0.288674,7.248
0.288810,7.343
0.288946,7.439
0.289083,7.534
0.289219,7.629
0.289355,7.725
0.289492,7.868
0.289628,8.011
0.289764,8.106
0.289901,8.249
0.290037,8.392
0.290173,8.488
0.290309,8.631
0.290446,8.726
0.290582,8.821
0.290718,8.965
0.290855,9.060
0.290991,9.108
0.291127,9.203
0.291263,9.251
0.291400,9.251
0.291536,9.298
0.291672,9.298
0.291809,9.298
0.291945,9.298
0.292081,9.251
0.292218,9.251
0.292354,9.203
0.292490,9.155
0.292626,9.108
0.292763,9.060
0.292899,9.012
0.293035,8.917
0.293172,8.869
0.293308,8.821
0.293444,8.821
0.293580,8.774
0.293717,8.774
0.293853,8.726
0.293989,8.726
0.294126,8.774
0.294262,8.774
0.294398,8.821
0.294535,8.821
0.294671,8.869
0.294807,8.917
0.294943,8.917
0.295080,8.965
0.295216,9.012
0.295352,9.012
0.295489,9.060
0.295625,9.060
0.295761,9.108
0.295898,9.108
0.296034,9.155
0.296170,9.155
0.296306,9.203
0.296443,9.203
0.296579,9.251
0.296715,9.251
0.296852,9.298
0.296988,9.298
0.297124,9.346
0.297260,9.394
0.297397,9.394
0.297533,9.441
0.297669,9.489
0.297806,9.537
0.297942,9.537
0.298078,9.584
0.298215,9.632
0.298351,9.680
0.298487,9.680
0.298623,9.727
0.298760,9.727
0.298896,9.775
0.299032,9.775
0.299169,9.775
0.299305,9.775
0.299441,9.775
0.299577,9.775
0.299714,9.775
0.299850,9.775
0.299986,9.775
0.300123,9.775
0.300259,9.775
0.300395,9.823
0.300532,9.823
0.300668,9.871
0.300804,9.871
0.300940,9.918
0.301077,9.966
0.301213,10.061
0.301349,10.109
0.301486,10.157
0.301622,10.252
0.301758,10.300
0.301895,10.395
0.302031,10.443
0.302167,10.490
0.302303,10.586
0.302440,10.633
0.302576,10.681
0.302712,10.729
0.302849,10.729
0.302985,10.777
0.303121,10.777
0.303257,10.777
0.303394,10.777
0.303530,10.777
0.303666,10.777
0.303803,10.729
0.303939,10.729
0.304075,10.681
0.304212,10.681
0.304348,10.633
0.304484,10.633
0.304620,10.586
0.304757,10.586
0.304893,10.538
0.305029,10.538
0.305166,10.490
0.305302,10.490
0.305438,10.443
0.305574,10.443
0.305711,10.395
0.305847,10.347
0.305983,10.300
0.306120,10.300
0.306256,10.252
0.306392,10.204
0.306529,10.204
0.306665,10.204
0.306801,10.204
0.306937,10.204
0.307074,10.204
0.307210,10.204
0.307346,10.252
0.307483,10.300
0.307619,10.347
0.307755,10.395
0.307892,10.443
0.308028,10.490
0.308164,10.586
0.308300,10.633
0.308437,10.729
0.308573,10.777
0.308709,10.872
0.308846,10.920
0.308982,11.015
0.309118,11.063
0.309254,11.110
0.309391,11.158
0.309527,11.206
0.309663,11.206
0.309800,11.253
0.309936,11.253
0.310072,11.253
0.310209,11.253
0.310345,11.253
0.310481,11.253
0.310617,11.206
0.310754,11.206
0.310890,11.206
0.311026,11.158
0.311163,11.158
0.311299,11.110
0.311435,11.063
0.311571,11.063
0.311708,11.015
0.311844,10.967
0.311980,10.967
0.312117,10.920
0.312253,10.872
0.312389,10.824
0.312526,10.777
0.312662,10.729
0.312798,10.681
0.312934,10.586
0.313071,10.538
0.313207,10.490
0.313343,10.443
0.313480,10.395
0.313616,10.347
0.313752,10.300
0.313889,10.252
0.818763,10.204
0.819119,10.157
0.819474,10.109
0.819829,10.061
0.820185,10.061
0.820540,10.014
0.820896,9.966
0.821251,9.966
0.821606,9.918
0.821962,9.918
0.822317,9.918
0.822672,9.871
0.823028,9.871
0.823383,9.871
0.823738,9.871
0.824094,9.871
0.824449,9.918
0.824805,9.918
0.825160,9.918
0.825515,9.966
0.825871,10.014
0.826226,10.014
0.826581,10.061
0.826937,10.061
0.827292,10.109
0.827647,10.109
0.828003,10.109
0.828358,10.157
0.828714,10.157
0.829069,10.204
0.829424,10.204
0.829780,10.204
0.830135,10.204
0.830490,10.252
0.830846,10.252
0.831201,10.300
0.831557,10.347
0.831912,10.347
0.832267,10.395
0.832623,10.443
0.832978,10.490
0.833333,10.538
0.833689,10.538
0.834044,10.586
0.834399,10.633
0.834755,10.681
0.835110,10.681
0.835466,10.729
0.835821,10.777
0.836176,10.777
0.836532,10.824
0.836887,10.872
0.837242,10.872
0.837598,10.920
0.837953,10.920
0.838308,10.967
0.838664,10.967
0.839019,10.967
0.839375,10.967
0.839730,10.967
0.840085,10.967
0.840441,10.967
0.840796,10.967
0.841151,10.920
0.841507,10.872
0.841862,10.872
0.842217,10.824
0.842573,10.777
0.842928,10.729
0.843284,10.681
0.843639,10.633
0.843994,10.586
0.844350,10.538
0.844705,10.443
0.845060,10.395
0.845416,10.347
0.845771,10.300
0.846127,10.252
0.846482,10.204
0.846837,10.157
0.847193,10.061
0.847548,10.014
0.847903,9.966
0.848259,9.871
0.848614,9.823
0.848969,9.775
0.849325,9.680
0.849680,9.632
0.850036,9.584
0.850391,9.489
0.850746,9.441
0.851102,9.394
0.851457,9.346
0.851812,9.298
0.852168,9.251
0.852523,9.203
0.852878,9.155
0.853234,9.108
0.853589,9.060
0.853945,9.012
0.854300,8.965
0.854655,8.965
0.855011,8.917
0.855366,8.869
0.855721,8.869
0.856077,8.821
0.856432,8.821
0.856787,8.821
0.857143,8.821
0.857498,8.821
0.857854,8.774
0.858209,8.774
0.858564,8.774
0.858920,8.774
0.859275,8.774
0.859630,8.774
0.859986,8.774
0.860341,8.774
0.860697,8.774
0.861052,8.774
0.861407,8.774
0.861763,8.821
0.862118,8.821
0.862473,8.821
0.862829,8.821
0.863184,8.821
0.863539,8.821
0.863895,8.869
0.864250,8.869
0.864606,8.869
0.864961,8.869
0.865316,8.869
0.865672,8.869
0.866027,8.821
0.866382,8.821
0.866738,8.821
0.867093,8.821
0.867448,8.821
0.867804,8.821
0.868159,8.774
0.868515,8.774
0.868870,8.774
0.869225,8.774
0.869581,8.774
0.869936,8.726
0.870291,8.726
0.870647,8.678
0.871002,8.678
0.871357,8.631
0.871713,8.631
0.872068,8.583
0.872424,8.535
0.872779,8.535
0.873134,8.488
0.873490,8.440
0.873845,8.392
0.874200,8.392
0.874556,8.345
0.874911,8.297
0.875267,8.249
0.875622,8.202
0.875977,8.154
0.876333,8.106
0.876688,8.059
0.877043,8.011
0.877399,7.963
0.877754,7.915
0.878109,7.868
0.878465,7.820
0.878820,7.772
0.879176,7.725
0.879531,7.677
0.879886,7.677
0.880242,7.629
0.880597,7.582
0.880952,7.582
0.881308,7.534
0.881663,7.534
0.882018,7.486
0.882374,7.486
0.882729,7.534
0.883085,7.534
0.883440,7.534
0.883795,7.582
0.884151,7.629
0.884506,7.629
0.884861,7.677
0.885217,7.725
0.885572,7.772
0.885928,7.868
0.886283,7.915
0.886638,7.963
0.886994,8.011
0.887349,8.059
0.887704,8.106
0.888060,8.154
0.888415,8.202
0.888770,8.249
0.889126,8.249
0.889481,8.297
0.889837,8.297
0.890192,8.297
0.890547,8.297
0.890903,8.249
0.891258,8.202
0.891613,8.202
0.891969,8.154
0.892324,8.106
0.892679,8.059
0.893035,7.963
0.893390,7.915
0.893746,7.868
0.894101,7.772
0.894456,7.725
0.894812,7.629
0.895167,7.582
0.895522,7.486
0.895878,7.439
0.896233,7.343
0.896588,7.296
0.896944,7.200
0.897299,7.105
0.897655,7.010
0.898010,6.962
0.898365,6.866
0.898721,6.771
0.899076,6.676
0.899431,6.533
0.899787,6.437
0.900142,6.342
0.900498,6.247
0.900853,6.151
0.901208,6.056
0.901564,5.960
0.901919,5.865
0.902274,5.770
0.902630,5.674
0.902985,5.579
0.903340,5.531
0.903696,5.436
0.904051,5.388
0.904407,5.341
0.904762,5.245
0.905117,5.198
0.905473,5.150
0.905828,5.102
0.906183,5.054
0.906539,5.007
0.906894,4.911
0.907249,4.864
0.907605,4.864
0.907960,4.816
0.908316,4.768
0.908671,4.721
0.909026,4.721
0.909382,4.673
0.909737,4.673
0.910092,4.625
0.910448,4.625
0.910803,4.625
0.911158,4.625
0.911514,4.625
0.911869,4.578
0.912225,4.578
0.912580,4.578
0.912935,4.578
0.913291,4.578
0.913646,4.578
0.914001,4.578
0.914357,4.578
0.914712,4.578
0.915068,4.578
0.915423,4.578
0.915778,4.578
0.916134,4.578
0.916489,4.578
0.916844,4.625
0.917200,4.625
0.917555,4.625
0.917910,4.673
0.918266,4.673
0.918621,4.673
0.918977,4.673
0.919332,4.673
0.919687,4.673
0.920043,4.673
0.920398,4.625
0.920753,4.625
0.921109,4.625
0.921464,4.578
0.921819,4.530
0.922175,4.530
0.922530,4.482
0.922886,4.482
0.923241,4.435
0.923596,4.387
0.923952,4.339
0.924307,4.339
0.924662,4.292
0.925018,4.244
0.925373,4.196
0.925729,4.148
0.926084,4.101
0.926439,4.053
0.926795,4.005
0.927150,3.958
0.927505,3.910
0.927861,3.862
0.928216,3.815
0.928571,3.815
0.928927,3.767
0.929282,3.719
0.929638,3.672
0.929993,3.672
0.930348,3.624
0.930704,3.576
0.931059,3.576
0.931414,3.529
0.931770,3.529
0.932125,3.529
0.932480,3.481
0.932836,3.481
0.933191,3.433
0.933547,3.433
0.933902,3.386
0.934257,3.386
0.934613,3.338
0.934968,3.338
0.935323,3.338
0.935679,3.290
0.936034,3.290
0.936389,3.242
0.936745,3.242
0.937100,3.242
0.937456,3.242
0.937811,3.195
0.938166,3.195
0.938522,3.195
0.938877,3.195
0.939232,3.195
0.939588,3.195
0.939943,3.147
0.940299,3.147
0.940654,3.147
0.941009,3.099
0.941365,3.099
0.941720,3.052
0.942075,3.004
0.942431,2.956
0.942786,2.909
0.943141,2.861
0.943497,2.861
0.943852,2.813
0.944208,2.766
0.944563,2.718
0.944918,2.670
0.945274,2.623
0.945629,2.575
0.945984,2.527
0.946340,2.480
0.946695,2.432
0.947050,2.384
0.947406,2.337
0.947761,2.289
0.948117,2.241
0.948472,2.146
0.948827,2.098
0.949183,2.050
0.949538,2.003
0.949893,1.955
0.950249,1.860
0.950604,1.812
0.950959,1.764
0.951315,1.717
0.951670,1.669
0.952026,1.621
0.952381,1.574
0.952736,1.526
0.953092,1.526
0.953447,1.478
0.953802,1.431
0.954158,1.383
0.954513,1.383
0.954869,1.335
0.955224,1.287
0.955579,1.287
0.955935,1.240
0.956290,1.192
0.956645,1.144
0.957001,1.144
0.957356,1.097
0.957711,1.049
0.958067,1.049
0.958422,1.001
0.958778,1.001
0.959133,0.954
0.959488,0.954
0.959844,0.954
0.960199,0.906
0.960554,0.906
0.960910,0.906
0.961265,0.858
0.961620,0.858
0.961976,0.811
0.962331,0.811
0.962687,0.811
0.963042,0.811
0.963397,0.811
0.963753,0.811
0.964108,0.811
0.964463,0.858
0.964819,0.906
0.965174,0.954
0.965529,1.001
0.965885,1.097
0.966240,1.192
0.966596,1.287
0.966951,1.431
0.967306,1.526
0.967662,1.669
0.968017,1.764
0.968372,1.907
0.968728,2.050
0.969083,2.146
0.969439,2.289
0.969794,2.384
0.970149,2.527
0.970505,2.623
0.970860,2.718
0.971215,2.766
0.971571,2.861
0.971926,2.909
0.972281,2.956
0.972637,2.956
0.972992,3.004
0.973348,3.004
0.973703,3.004
0.974058,2.956
0.974414,2.956
0.974769,2.909
0.975124,2.813
0.975480,2.766
0.975835,2.670
0.976190,2.575
0.976546,2.480
0.976901,2.384
0.977257,2.289
0.977612,2.146
0.977967,2.003
0.978323,1.860
0.978678,1.717
0.979033,1.574
0.979389,1.431
0.979744,1.287
0.980100,1.144
0.980455,1.001
0.980810,0.858
0.981166,0.715
0.981521,0.572
0.981876,0.477
0.982232,0.334
0.982587,0.238
0.982942,0.095
0.983298,0.000
0.983653,-0.048
0.984009,-0.143
0.984364,-0.238
0.984719,-0.286
0.985075,-0.381
0.985430,-0.429
0.985785,-0.525
0.986141,-0.572
0.986496,-0.620
0.986851,-0.668
0.987207,-0.715
0.987562,-0.763
0.987918,-0.763
0.988273,-0.811
0.988628,-0.811
0.988984,-0.858
0.989339,-0.858
0.989694,-0.906
0.990050,-0.906
0.990405,-0.906
0.990760,-0.954
0.991116,-0.954
0.991471,-0.954
0.991827,-0.954
0.992182,-0.954
0.992537,-0.954
0.992893,-1.001
0.993248,-1.001
0.993603,-1.001
0.993959,-1.001
0.994314,-1.001
0.994670,-1.001
0.995025,-1.001
0.995380,-1.049
0.995736,-1.049
0.996091,-1.049
0.996446,-1.049
0.996802,-1.097
0.997157,-1.097
0.997512,-1.097
0.997868,-1.144
0.998223,-1.144
0.998579,-1.144
0.998934,-1.192
0.999289,-1.192
0.999645,-1.192
1.000000,-1.240
1.000355,-1.240
1.000711,-1.287
1.001066,-1.287
1.001421,-1.335
1.001777,-1.335
1.002132,-1.383
1.002488,-1.383
1.002843,-1.431
1.003198,-1.431
1.003554,-1.478
1.003909,-1.478
1.004264,-1.526
1.004620,-1.526
1.004975,-1.574
1.005330,-1.574
1.005686,-1.621
1.006041,-1.621
1.006397,-1.669
1.006752,-1.669
1.007107,-1.669
1.007463,-1.717
1.007818,-1.717
1.008173,-1.764
1.008529,-1.764
1.008884,-1.812
1.009240,-1.812
1.009595,-1.812
1.009950,-1.860
1.010306,-1.860
1.010661,-1.907
1.011016,-1.907
1.011372,-1.907
1.011727,-1.955
1.012082,-1.955
1.012438,-1.955
1.012793,-1.955
1.013149,-2.003
1.013504,-2.003
1.013859,-2.003
1.014215,-1.955
1.014570,-1.955
1.014925,-1.907
1.015281,-1.860
1.015636,-1.812
1.015991,-1.764
1.016347,-1.717
1.016702,-1.621
1.017058,-1.574
1.017413,-1.478
1.017768,-1.431
1.018124,-1.335
1.018479,-1.287
1.018834,-1.240
1.019190,-1.192
1.019545,-1.192
1.019900,-1.144
1.020256,-1.144
1.020611,-1.144
1.020967,-1.192
1.021322,-1.192
1.021677,-1.240
1.022033,-1.287
1.022388,-1.335
1.022743,-1.431
1.023099,-1.526
1.023454,-1.574
1.023810,-1.669
1.024165,-1.764
1.024520,-1.860
1.024876,-1.955
1.025231,-2.050
1.025586,-2.193
1.025942,-2.289
1.026297,-2.384
1.026652,-2.480
1.027008,-2.575
1.027363,-2.670
1.027719,-2.766
1.028074,-2.861
1.028429,-2.909
1.028785,-3.004
1.029140,-3.099
1.029495,-3.147
1.029851,-3.195
1.030206,-3.242
1.030561,-3.290
1.030917,-3.338
1.031272,-3.386
1.031628,-3.433
1.031983,-3.433
1.032338,-3.433
1.032694,-3.481
1.033049,-3.481
1.033404,-3.481
1.033760,-3.481
1.034115,-3.481
1.034471,-3.433
1.034826,-3.433
1.035181,-3.433
1.035537,-3.386
1.035892,-3.386
1.036247,-3.338
1.036603,-3.338
1.036958,-3.290
1.037313,-3.242
1.037669,-3.242
1.038024,-3.195
1.038380,-3.147
1.038735,-3.147
1.039090,-3.099
1.039446,-3.052
1.039801,-3.052
1.040156,-3.004
1.040512,-2.956
1.040867,-2.956
1.041222,-2.909
1.041578,-2.861
1.041933,-2.861
1.042289,-2.813
1.042644,-2.766
1.042999,-2.718
1.043355,-2.670
1.043710,-2.623
1.044065,-2.575
1.044421,-2.527
1.044776,-2.480
1.045131,-2.384
1.045487,-2.337
1.045842,-2.289
1.046198,-2.241
1.046553,-2.241
1.046908,-2.193
1.047264,-2.193
1.047619,-2.146
1.047974,-2.146
1.048330,-2.146
1.048685,-2.146
1.049041,-2.146
1.049396,-2.146
1.049751,-2.146
1.050107,-2.193
1.050462,-2.193
1.050817,-2.193
1.051173,-2.193
1.051528,-2.193
1.051883,-2.193
1.052239,-2.146
1.052594,-2.146
1.052950,-2.146
1.053305,-2.146
1.053660,-2.146
1.054016,-2.146
1.054371,-2.098
1.054726,-2.098
1.055082,-2.050
1.055437,-2.050
1.055792,-2.050
1.056148,-2.003
1.056503,-2.003
1.056859,-2.003
1.057214,-2.003
1.057569,-2.003
1.057925,-2.003
1.058280,-2.050
1.058635,-2.050
1.058991,-2.098
1.059346,-2.146
1.059701,-2.193
1.060057,-2.241
1.060412,-2.337
1.060768,-2.384
1.061123,-2.480
1.061478,-2.575
1.061834,-2.623
1.062189,-2.718
1.062544,-2.813
1.062900,-2.909
1.063255,-2.956
1.063611,-3.052
1.063966,-3.099
1.064321,-3.147
1.064677,-3.195
1.065032,-3.242
1.065387,-3.242
1.065743,-3.195
1.066098,-3.195
1.066453,-3.147
1.066809,-3.099
1.067164,-3.052
1.067520,-3.004
1.067875,-2.909
1.068230,-2.813
1.068586,-2.718
1.068941,-2.623
1.069296,-2.527
1.069652,-2.432
1.070007,-2.337
1.070362,-2.289
1.070718,-2.193
1.071073,-2.098
1.071429,-2.050
1.071784,-1.955
1.072139,-1.907
1.072495,-1.907
1.072850,-1.860
1.073205,-1.860
1.073561,-1.812
1.073916,-1.860
1.074271,-1.860
1.074627,-1.860
1.074982,-1.907
1.075338,-1.955
1.075693,-2.003
1.076048,-2.050
1.076404,-2.146
1.076759,-2.241
1.077114,-2.337
1.077470,-2.432
1.077825,-2.527
1.078181,-2.670
1.078536,-2.766
1.078891,-2.909
1.079247,-3.052
1.079602,-3.147
1.079957,-3.290
1.080313,-3.433
1.080668,-3.529
1.081023,-3.624
1.081379,-3.767
1.081734,-3.815
1.082090,-3.910
1.082445,-3.958
1.082800,-4.053
1.083156,-4.101
1.083511,-4.148
1.083866,-4.148
1.084222,-4.196
1.084577,-4.196
1.084932,-4.196
1.085288,-4.196
1.085643,-4.196
1.085999,-4.196
1.086354,-4.196
1.086709,-4.148
1.087065,-4.148
1.087420,-4.101
1.087775,-4.053
1.088131,-4.053
1.088486,-4.005
1.088842,-3.958
1.089197,-3.958
1.089552,-3.910
1.089908,-3.910
1.090263,-3.910
1.090618,-3.862
1.090974,-3.862
1.091329,-3.862
1.091684,-3.862
1.092040,-3.910
1.092395,-3.910
1.092751,-3.910
1.093106,-3.958
1.093461,-3.958
1.093817,-4.005
1.094172,-4.005
1.094527,-4.053
1.094883,-4.053
1.095238,-4.053
1.095593,-4.053
1.095949,-4.101
1.096304,-4.101
1.096660,-4.101
1.097015,-4.101
1.097370,-4.101
1.097726,-4.101
1.098081,-4.101
1.098436,-4.101
1.098792,-4.101
1.099147,-4.101
1.099502,-4.148
1.099858,-4.148
1.100213,-4.196
1.100569,-4.196
1.100924,-4.244
1.101279,-4.244
1.101635,-4.292
1.101990,-4.292
1.102345,-4.339
1.102701,-4.387
1.103056,-4.387
1.103412,-4.435
1.103767,-4.435
1.104122,-4.482
1.104478,-4.482
1.104833,-4.482
1.105188,-4.482
1.105544,-4.482
1.105899,-4.482
1.106254,-4.482
1.106610,-4.482
1.106965,-4.482
1.107321,-4.435
1.107676,-4.435
1.108031,-4.387
1.108387,-4.387
1.108742,-4.339
1.109097,-4.292
1.109453,-4.244
1.109808,-4.196
1.110163,-4.148
1.110519,-4.053
1.110874,-4.005
1.111230,-3.910
1.111585,-3.815
1.111940,-3.767
1.112296,-3.672
1.112651,-3.576
1.113006,-3.481
1.113362,-3.338
1.113717,-3.242
1.114072,-3.147
1.114428,-3.052
1.114783,-2.956
1.115139,-2.861
1.115494,-2.766
1.115849,-2.670
1.116205,-2.623
1.116560,-2.527
1.116915,-2.480
1.117271,-2.432
1.117626,-2.384
1.117982,-2.337
1.118337,-2.289
1.118692,-2.289
1.119048,-2.289
1.119403,-2.241
1.119758,-2.241
1.120114,-2.241
1.120469,-2.289
1.120824,-2.289
1.121180,-2.289
1.121535,-2.337
1.121891,-2.337
1.122246,-2.384
1.122601,-2.432
1.122957,-2.432
1.123312,-2.480
1.123667,-2.527
1.124023,-2.575
1.124378,-2.575
1.124733,-2.623
1.125089,-2.670
1.125444,-2.670
1.125800,-2.670
1.126155,-2.718
1.126510,-2.718
1.126866,-2.718
1.127221,-2.718
1.127576,-2.718
1.127932,-2.718
1.128287,-2.718
1.128643,-2.718
1.128998,-2.766
1.129353,-2.766
1.129709,-2.813
1.130064,-2.813
1.130419,-2.861
1.130775,-2.909
1.131130,-2.956
1.131485,-3.004
1.131841,-3.052
1.132196,-3.099
1.132552,-3.195
1.132907,-3.242
1.133262,-3.338
1.133618,-3.433
1.133973,-3.529
1.134328,-3.576
1.134684,-3.719
1.135039,-3.815
1.135394,-3.910
1.135750,-4.005
1.136105,-4.101
1.136461,-4.196
1.136816,-4.244
1.137171,-4.339
1.137527,-4.387
1.137882,-4.435
1.138237,-4.435
1.138593,-4.482
1.138948,-4.435
1.139303,-4.435
1.139659,-4.387
1.140014,-4.292
1.140370,-4.196
1.140725,-4.101
1.141080,-3.958
1.141436,-3.815
1.141791,-3.624
1.142146,-3.433
1.142502,-3.290
1.142857,-3.099
1.143213,-2.861
1.143568,-2.670
1.143923,-2.480
1.144279,-2.337
1.144634,-2.146
1.144989,-2.003
1.145345,-1.860
1.145700,-1.717
1.146055,-1.621
1.146411,-1.526
1.146766,-1.478
1.147122,-1.431
1.147477,-1.383
1.147832,-1.383
1.148188,-1.431
1.148543,-1.431
1.148898,-1.478
1.149254,-1.526
1.149609,-1.621
1.149964,-1.669
1.150320,-1.764
1.150675,-1.812
1.151031,-1.907
1.151386,-1.955
1.151741,-2.003
1.152097,-2.050
1.152452,-2.098
1.152807,-2.146
1.153163,-2.146
1.153518,-2.146
1.153873,-2.098
1.154229,-2.050
1.154584,-2.003
1.154940,-1.955
1.155295,-1.907
1.155650,-1.812
1.156006,-1.764
1.156361,-1.669
1.156716,-1.621
1.157072,-1.526
1.157427,-1.478
1.157783,-1.431
1.158138,-1.383
1.158493,-1.335
1.158849,-1.335
1.159204,-1.335
1.159559,-1.335
1.159915,-1.335
1.160270,-1.383
1.160625,-1.431
1.160981,-1.526
1.161336,-1.574
1.161692,-1.669
1.162047,-1.764
1.162402,-1.860
1.162758,-1.955
1.163113,-2.003
1.163468,-2.098
1.163824,-2.193
1.164179,-2.241
1.164534,-2.289
1.164890,-2.337
1.165245,-2.337
1.165601,-2.337
1.165956,-2.337
1.166311,-2.289
1.166667,-2.241
1.167022,-2.193
1.167377,-2.098
1.167733,-2.003
1.168088,-1.907
1.168443,-1.812
1.168799,-1.717
1.169154,-1.621
1.169510,-1.526
1.169865,-1.383
1.170220,-1.287
1.170576,-1.240
1.170931,-1.144
1.171286,-1.097
1.171642,-1.049
1.171997,-1.001
1.172353,-1.001
1.172708,-1.001
1.173063,-1.001
1.173419,-1.049
1.173774,-1.097
1.174129,-1.144
1.174485,-1.240
1.174840,-1.287
1.175195,-1.383
1.175551,-1.478
1.175906,-1.526
1.176262,-1.621
1.176617,-1.669
1.176972,-1.764
1.177328,-1.812
1.177683,-1.812
1.178038,-1.860
1.178394,-1.860
1.178749,-1.860
1.179104,-1.812
1.179460,-1.764
1.179815,-1.717
1.180171,-1.669
1.180526,-1.574
1.180881,-1.478
1.181237,-1.335
1.181592,-1.240
1.181947,-1.097
1.182303,-0.954
1.182658,-0.858
1.183014,-0.715
1.183369,-0.572
1.183724,-0.477
1.184080,-0.334
1.184435,-0.238
1.184790,-0.143
1.185146,-0.048
1.185501,0.000
1.185856,0.095
1.186212,0.143
1.186567,0.191
1.186923,0.238
1.187278,0.286
1.187633,0.286
1.187989,0.334
1.188344,0.334
1.188699,0.334
1.189055,0.286
1.189410,0.286
1.189765,0.238
1.190121,0.191
1.190476,0.143
1.190832,0.095
1.191187,0.048
1.191542,0.000
1.191898,-0.048
1.192253,-0.095
1.192608,-0.143
1.192964,-0.191
1.193319,-0.286
1.193674,-0.334
1.194030,-0.381
1.194385,-0.429
1.194741,-0.477
1.195096,-0.525
1.195451,-0.572
1.195807,-0.620
1.196162,-0.668
1.196517,-0.715
1.196873,-0.763
1.197228,-0.811
1.197584,-0.858
1.197939,-0.906
1.198294,-0.954
1.198650,-0.954
1.199005,-1.001
1.199360,-1.001
1.199716,-1.001
1.200071,-1.001
1.200426,-1.001
1.200782,-1.001
1.201137,-0.954
1.201493,-0.906
1.201848,-0.858
1.202203,-0.811
1.202559,-0.763
1.202914,-0.715
1.203269,-0.668
1.203625,-0.572
1.203980,-0.525
1.204335,-0.429
1.204691,-0.334
1.205046,-0.286
1.205402,-0.238
1.205757,-0.143
1.206112,-0.095
1.206468,-0.048
1.206823,-0.048
1.207178,0.000
1.207534,0.000
1.207889,0.000
1.208244,-0.048
1.208600,-0.048
1.208955,-0.095
1.209311,-0.143
1.209666,-0.191
1.210021,-0.238
1.210377,-0.286
1.210732,-0.381
1.211087,-0.429
1.211443,-0.525
1.211798,-0.620
1.212154,-0.668
1.212509,-0.763
1.212864,-0.858
1.213220,-0.954
1.213575,-1.001
1.213930,-1.097
1.214286,-1.144
1.214641,-1.240
1.214996,-1.287
1.215352,-1.335
1.215707,-1.383
1.216063,-1.431
1.216418,-1.431
1.216773,-1.478
1.217129,-1.478
1.217484,-1.478
1.217839,-1.431
1.218195,-1.431
1.218550,-1.431
1.218905,-1.383
1.219261,-1.335
1.219616,-1.335
1.219972,-1.287
1.220327,-1.240
1.220682,-1.240
1.221038,-1.192
1.221393,-1.192
1.221748,-1.192
1.222104,-1.192
1.222459,-1.240
1.222814,-1.240
1.223170,-1.287
1.223525,-1.335
1.223881,-1.383
1.224236,-1.478
1.224591,-1.574
1.224947,-1.621
1.225302,-1.717
1.225657,-1.812
1.226013,-1.907
1.226368,-2.003
1.226724,-2.050
1.227079,-2.146
1.227434,-2.193
1.227790,-2.241
1.228145,-2.289
1.228500,-2.337
1.228856,-2.337
1.229211,-2.337
1.229566,-2.337
1.229922,-2.337
1.230277,-2.289
1.230633,-2.241
1.230988,-2.193
1.231343,-2.098
1.231699,-2.003
1.232054,-1.907
1.232409,-1.764
1.232765,-1.621
1.233120,-1.431
1.233475,-1.240
1.233831,-1.049
1.234186,-0.858
1.234542,-0.620
1.234897,-0.381
1.235252,-0.143
1.235608,0.048
1.235963,0.286
1.236318,0.525
1.236674,0.763
1.237029,0.954
1.237385,1.192
1.237740,1.383
1.238095,1.526
1.238451,1.717
1.238806,1.812
1.239161,1.907
1.239517,2.003
1.239872,2.050
1.240227,2.098
1.240583,2.098
1.240938,2.050
1.241294,2.003
1.241649,1.907
1.242004,1.812
1.242360,1.669
1.242715,1.478
1.243070,1.335
1.243426,1.097
1.243781,0.906
1.244136,0.668
1.244492,0.477
1.244847,0.238
1.245203,0.000
1.245558,-0.143
1.245913,-0.381
1.246269,-0.572
1.246624,-0.763
1.246979,-0.954
1.247335,-1.097
1.247690,-1.240
1.248045,-1.335
1.248401,-1.431
1.248756,-1.478
1.249112,-1.526
1.249467,-1.574
1.249822,-1.574
1.250178,-1.526
1.250533,-1.526
1.250888,-1.431
1.251244,-1.383
1.251599,-1.287
1.251955,-1.192
1.252310,-1.097
1.252665,-0.954
1.253021,-0.811
1.253376,-0.668
1.253731,-0.525
1.254087,-0.381
1.254442,-0.238
1.254797,-0.095
1.255153,0.000
1.255508,0.143
1.255864,0.286
1.256219,0.429
1.256574,0.572
1.256930,0.668
1.257285,0.811
1.257640,0.906
1.257996,1.001
1.258351,1.097
1.258706,1.192
1.259062,1.287
1.259417,1.335
1.259773,1.383
1.260128,1.478
1.260483,1.526
1.260839,1.574
1.261194,1.621
1.261549,1.669
1.261905,1.717
1.262260,1.717
1.262615,1.764
1.262971,1.812
1.263326,1.860
1.263682,1.860
1.264037,1.907
1.264392,1.907
1.264748,1.907
1.265103,1.860
1.265458,1.860
1.265814,1.812
1.266169,1.764
1.266525,1.717
1.266880,1.621
1.267235,1.574
1.267591,1.478
1.267946,1.335
1.268301,1.192
1.268657,1.097
1.269012,0.906
1.269367,0.763
1.269723,0.572
1.270078,0.429
1.270434,0.238
1.270789,0.095
1.271144,-0.048
1.271500,-0.191
1.271855,-0.334
1.272210,-0.477
1.272566,-0.620
1.272921,-0.715
1.273276,-0.811
1.273632,-0.858
1.273987,-0.906
1.274343,-0.906
1.274698,-0.906
1.275053,-0.858
1.275409,-0.811
1.275764,-0.763
1.276119,-0.668
1.276475,-0.572
1.276830,-0.429
1.277186,-0.286
1.277541,-0.143
1.277896,-0.048
1.278252,0.048
1.278607,0.191
1.278962,0.334
1.279318,0.477
1.279673,0.572
1.280028,0.668
1.280384,0.763
1.280739,0.858
1.281095,0.906
1.281450,0.954
1.281805,1.001
1.282161,1.049
1.282516,1.049
1.282871,1.049
1.283227,1.049
1.283582,1.001
1.283937,0.954
1.284293,0.954
1.284648,0.858
1.285004,0.811
1.285359,0.763
1.285714,0.715
1.286070,0.668
1.286425,0.620
1.286780,0.572
1.287136,0.525
1.287491,0.477
1.287846,0.477
1.288202,0.477
1.288557,0.477
1.288913,0.525
1.289268,0.525
1.289623,0.572
1.289979,0.620
1.290334,0.668
1.290689,0.715
1.291045,0.763
1.291400,0.763
1.291756,0.811
1.292111,0.858
1.292466,0.858
1.292822,0.858
1.293177,0.858
1.293532,0.858
1.293888,0.858
1.294243,0.811
1.294598,0.763
1.294954,0.763
1.295309,0.715
1.295665,0.668
1.296020,0.668
1.296375,0.620
1.296731,0.620
1.297086,0.620
1.297441,0.620
1.297797,0.668
1.298152,0.715
1.298507,0.763
1.298863,0.858
1.299218,0.906
1.299574,1.001
1.299929,1.144
1.300284,1.240
1.300640,1.335
1.300995,1.431
1.301350,1.574
1.301706,1.669
1.302061,1.764
1.302416,1.860
1.302772,2.003
1.303127,2.050
1.303483,2.146
1.303838,2.241
1.304193,2.289
1.304549,2.337
1.304904,2.384
1.305259,2.432
1.305615,2.480
1.305970,2.480
1.306326,2.480
1.306681,2.480
1.307036,2.480
1.307392,2.480
1.307747,2.432
1.308102,2.432
1.308458,2.384
1.308813,2.337
1.309168,2.289
1.309524,2.241
1.309879,2.193
1.310235,2.146
1.310590,2.050
1.310945,2.003
1.311301,1.907
1.311656,1.812
1.312011,1.669
1.312367,1.574
1.312722,1.431
1.313077,1.287
1.313433,1.144
1.313788,1.001
1.314144,0.811
1.314499,0.668
1.314854,0.477
1.315210,0.334
1.315565,0.143
1.315920,0.000
1.316276,-0.143
1.316631,-0.334
1.316986,-0.525
1.317342,-0.668
1.317697,-0.858
1.318053,-1.001
1.318408,-1.192
1.318763,-1.335
1.319119,-1.478
1.319474,-1.621
1.319829,-1.717
1.320185,-1.812
1.320540,-1.907
1.320896,-1.955
1.321251,-2.003
1.321606,-2.050
1.321962,-2.050
1.322317,-2.003
1.322672,-2.003
1.323028,-1.907
1.323383,-1.860
1.323738,-1.764
1.324094,-1.669
1.324449,-1.574
1.324805,-1.431
1.325160,-1.287
1.325515,-1.144
1.325871,-1.001
1.326226,-0.811
1.326581,-0.668
1.326937,-0.477
1.327292,-0.334
1.327647,-0.143
1.328003,0.000
1.328358,0.143
1.328714,0.286
1.329069,0.429
1.329424,0.620
1.329780,0.763
1.330135,0.906
1.330490,1.049
1.330846,1.192
1.331201,1.287
1.331557,1.431
1.331912,1.574
1.332267,1.717
1.332623,1.860
1.332978,2.050
1.333333,2.193
1.333689,2.384
1.334044,2.527
1.334399,2.718
1.334755,2.909
1.335110,3.052
1.335466,3.242
1.335821,3.386
1.336176,3.576
1.336532,3.719
1.336887,3.862
1.337242,3.958
1.337598,4.053
1.337953,4.148
1.338308,4.196
1.338664,4.244
1.339019,4.292
1.339375,4.292
1.339730,4.292
1.340085,4.292
1.340441,4.244
1.340796,4.148
1.341151,4.101
1.341507,4.005
1.341862,3.910
1.342217,3.815
1.342573,3.719
1.342928,3.576
1.343284,3.433
1.343639,3.290
1.343994,3.099
1.344350,2.956
1.344705,2.766
1.345060,2.575
1.345416,2.384
1.345771,2.193
1.346127,1.955
1.346482,1.764
1.346837,1.526
1.347193,1.335
1.347548,1.144
1.347903,0.954
1.348259,0.811
1.348614,0.668
1.348969,0.525
1.349325,0.381
1.349680,0.286
1.350036,0.238
1.350391,0.191
1.350746,0.143
1.351102,0.095
1.351457,0.095
1.351812,0.143
1.352168,0.143
1.352523,0.191
1.352878,0.191
1.353234,0.238
1.353589,0.286
1.353945,0.334
1.354300,0.381
1.354655,0.477
1.355011,0.525
1.355366,0.572
1.355721,0.620
1.356077,0.668
1.356432,0.715
1.356787,0.763
1.357143,0.763
1.357498,0.811
1.357854,0.858
1.358209,0.906
1.358564,0.906
1.358920,0.954
1.359275,0.954
1.359630,0.954
1.359986,1.001
1.360341,0.954
1.360697,0.954
1.361052,0.954
1.361407,0.906
1.361763,0.858
1.362118,0.811
1.362473,0.763
1.362829,0.715
1.363184,0.620
1.363539,0.572
1.363895,0.525
1.364250,0.429
1.364606,0.381
1.364961,0.381
1.365316,0.334
1.365672,0.334
1.366027,0.334
1.366382,0.381
1.366738,0.381
1.367093,0.477
1.367448,0.525
1.367804,0.620
1.368159,0.715
1.368515,0.858
1.368870,0.954
1.369225,1.097
1.369581,1.192
1.369936,1.335
1.370291,1.478
1.370647,1.574
1.371002,1.717
1.371357,1.812
1.371713,1.955
1.372068,2.050
1.372424,2.098
1.372779,2.193
1.373134,2.241
1.373490,2.289
1.373845,2.337
1.374200,2.337
1.374556,2.337
1.374911,2.337
1.375267,2.289
1.375622,2.289
1.375977,2.241
1.376333,2.193
1.376688,2.098
1.377043,2.003
1.377399,1.907
1.377754,1.812
1.378109,1.717
1.378465,1.574
1.378820,1.431
1.379176,1.287
1.379531,1.144
1.379886,1.001
1.380242,0.858
1.380597,0.715
1.380952,0.572
1.381308,0.429
1.381663,0.286
1.382018,0.143
1.382374,0.000
1.382729,-0.095
1.383085,-0.191
1.383440,-0.334
1.383795,-0.429
1.384151,-0.572
1.384506,-0.668
1.384861,-0.763
1.385217,-0.906
1.385572,-1.001
1.385928,-1.097
1.386283,-1.192
1.386638,-1.287
1.386994,-1.383
1.387349,-1.478
1.387704,-1.574
1.388060,-1.621
1.388415,-1.717
1.388770,-1.764
1.389126,-1.812
1.389481,-1.860
1.389837,-1.907
1.390192,-1.907
1.390547,-1.955
1.390903,-1.955
1.391258,-1.955
1.391613,-1.907
1.391969,-1.907
1.392324,-1.860
1.392679,-1.812
1.393035,-1.764
1.393390,-1.717
1.393746,-1.669
1.394101,-1.574
1.394456,-1.526
1.394812,-1.431
1.395167,-1.335
1.395522,-1.240
1.395878,-1.144
1.396233,-1.049
1.396588,-0.954
1.396944,-0.811
1.397299,-0.715
1.397655,-0.572
1.398010,-0.477
1.398365,-0.334
1.398721,-0.238
1.399076,-0.095
1.399431,0.000
1.399787,0.095
1.400142,0.238
1.400498,0.334
1.400853,0.429
1.401208,0.477
1.401564,0.572
1.401919,0.620
1.402274,0.668
1.402630,0.668
1.402985,0.715
1.403340,0.668
1.403696,0.668
1.404051,0.620
1.404407,0.525
1.404762,0.477
1.405117,0.381
1.405473,0.286
1.405828,0.191
1.406183,0.048
1.406539,0.000
1.406894,-0.095
1.407249,-0.238
1.407605,-0.334
1.407960,-0.381
1.408316,-0.477
1.408671,-0.572
1.409026,-0.620
1.409382,-0.668
1.409737,-0.715
1.410092,-0.763
1.410448,-0.763
1.410803,-0.763
1.411158,-0.763
1.411514,-0.763
1.411869,-0.715
1.412225,-0.668
1.412580,-0.620
1.412935,-0.572
1.413291,-0.525
1.413646,-0.429
1.414001,-0.381
1.414357,-0.286
1.414712,-0.191
1.415068,-0.048
1.415423,0.000
1.415778,0.143
1.416134,0.286
1.416489,0.429
1.416844,0.572
1.417200,0.715
1.417555,0.858
1.417910,1.049
1.418266,1.192
1.418621,1.335
1.418977,1.478
1.419332,1.621
1.419687,1.717
1.420043,1.860
1.420398,1.955
1.420753,2.003
1.421109,2.050
1.421464,2.098
1.421819,2.098
1.422175,2.098
1.422530,2.098
1.422886,2.050
1.423241,1.955
1.423596,1.860
1.423952,1.764
1.424307,1.621
1.424662,1.478
1.425018,1.335
1.425373,1.144
1.425729,1.001
1.426084,0.858
1.426439,0.668
1.426795,0.525
1.427150,0.334
1.427505,0.191
1.427861,0.048
1.428216,0.000
1.428571,-0.143
1.428927,-0.238
1.429282,-0.334
1.429638,-0.429
1.429993,-0.525
1.430348,-0.572
1.430704,-0.620
1.431059,-0.620
1.431414,-0.620
1.431770,-0.620
1.432125,-0.620
1.432480,-0.572
1.432836,-0.525
1.433191,-0.429
1.433547,-0.334
1.433902,-0.238
1.434257,-0.143
1.434613,-0.048
1.434968,0.048
1.435323,0.191
1.435679,0.334
1.436034,0.477
1.436389,0.668
1.436745,0.811
1.437100,0.954
1.437456,1.097
1.437811,1.240
1.438166,1.383
1.438522,1.478
1.438877,1.621
1.439232,1.669
1.439588,1.764
1.439943,1.812
1.440299,1.860
1.440654,1.860
1.441009,1.812
1.441365,1.812
1.441720,1.717
1.442075,1.669
1.442431,1.574
1.442786,1.431
1.443141,1.287
1.443497,1.144
1.443852,1.001
1.444208,0.858
1.444563,0.715
1.444918,0.572
1.445274,0.381
1.445629,0.238
1.445984,0.095
1.446340,0.000
1.446695,-0.095
1.447050,-0.191
1.447406,-0.334
1.447761,-0.429
1.448117,-0.477
1.448472,-0.572
1.448827,-0.620
1.449183,-0.668
1.449538,-0.715
1.449893,-0.715
1.450249,-0.763
1.450604,-0.763
1.450959,-0.763
1.451315,-0.715
1.451670,-0.715
1.452026,-0.668
1.452381,-0.620
1.452736,-0.572
1.453092,-0.525
1.453447,-0.477
1.453802,-0.429
1.454158,-0.381
1.454513,-0.286
1.454869,-0.238
1.455224,-0.143
1.455579,-0.095
1.455935,0.000
1.456290,0.000
1.456645,0.095
1.457001,0.143
1.457356,0.238
1.457711,0.286
1.458067,0.334
1.458422,0.381
1.458778,0.477
1.459133,0.525
1.459488,0.572
1.459844,0.620
1.460199,0.620
1.460554,0.668
1.460910,0.715
1.461265,0.715
1.461620,0.763
1.461976,0.763
1.462331,0.811
1.462687,0.811
1.463042,0.811
1.463397,0.811
1.463753,0.811
1.464108,0.811
1.464463,0.811
1.464819,0.811
1.465174,0.811
1.465529,0.811
1.465885,0.763
1.466240,0.763
1.466596,0.715
1.466951,0.715
1.467306,0.668
1.467662,0.668
1.468017,0.620
1.468372,0.572
1.468728,0.477
1.469083,0.429
1.469439,0.334
1.469794,0.286
1.470149,0.191
1.470505,0.095
1.470860,0.000
1.471215,-0.095
1.471571,-0.191
1.471926,-0.286
1.472281,-0.381
1.472637,-0.477
1.472992,-0.620
1.473348,-0.715
1.473703,-0.763
1.474058,-0.858
1.474414,-0.954
1.474769,-1.001
1.475124,-1.049
1.475480,-1.097
1.475835,-1.144
1.476190,-1.144
1.476546,-1.192
1.476901,-1.192
1.477257,-1.192
1.477612,-1.192
1.477967,-1.192
1.478323,-1.192
1.478678,-1.192
1.479033,-1.192
1.479389,-1.144
1.479744,-1.144
1.480100,-1.097
1.480455,-1.097
1.480810,-1.049
1.481166,-1.001
1.481521,-1.001
1.481876,-0.954
1.482232,-0.906
1.482587,-0.858
1.482942,-0.763
1.483298,-0.715
1.483653,-0.668
1.484009,-0.572
1.484364,-0.525
1.484719,-0.477
1.485075,-0.429
1.485430,-0.334
1.485785,-0.286
1.486141,-0.238
1.486496,-0.191
1.486851,-0.143
1.487207,-0.095
1.487562,-0.048
1.487918,-0.048
1.488273,0.000
1.488628,0.000
1.488984,0.048
1.489339,0.095
1.489694,0.095
1.490050,0.143
1.490405,0.191
1.490760,0.191
1.491116,0.238
1.491471,0.286
1.491827,0.286
1.492182,0.286
1.492537,0.334
1.492893,0.334
1.493248,0.334
1.493603,0.334
1.493959,0.334
1.494314,0.334
1.494670,0.286
1.495025,0.286
1.495380,0.286
1.495736,0.286
1.496091,0.238
1.496446,0.238
1.496802,0.238
1.497157,0.238
1.497512,0.238
1.497868,0.191
1.498223,0.191
1.498579,0.191
1.498934,0.191
1.499289,0.191
1.499645,0.238
1.500000,0.238
1.500355,0.286
1.500711,0.286
1.501066,0.334
1.501421,0.381
1.501777,0.429
1.502132,0.477
1.502488,0.525
1.502843,0.572
1.503198,0.620
1.503554,0.715
1.503909,0.763
1.504264,0.811
1.504620,0.858
1.504975,0.954
1.505330,1.001
1.505686,1.049
1.506041,1.097
1.506397,1.097
1.506752,1.144
1.507107,1.144
1.507463,1.144
1.507818,1.144
1.508173,1.144
1.508529,1.144
1.508884,1.097
1.509240,1.097
1.509595,1.049
1.509950,1.049
1.510306,1.001
1.510661,0.954
1.511016,0.906
1.511372,0.858
1.511727,0.811
1.512082,0.763
1.512438,0.715
1.512793,0.668
1.513149,0.620
1.513504,0.572
1.513859,0.525
1.514215,0.525
1.514570,0.477
1.514925,0.429
1.515281,0.381
1.515636,0.381
1.515991,0.334
1.516347,0.334
1.516702,0.334
1.517058,0.334
1.517413,0.334
1.517768,0.381
1.518124,0.381
1.518479,0.429
1.518834,0.477
1.519190,0.525
1.519545,0.572
1.519900,0.620
1.520256,0.715
1.520611,0.763
1.520967,0.811
1.521322,0.858
1.521677,0.954
1.522033,1.001
1.522388,1.049
1.522743,1.097
1.523099,1.144
1.523454,1.192
1.523810,1.240
1.524165,1.287
1.524520,1.335
1.524876,1.335
1.525231,1.335
1.525586,1.383
1.525942,1.383
1.526297,1.383
1.526652,1.335
1.527008,1.335
1.527363,1.287
1.527719,1.240
1.528074,1.144
1.528429,1.097
1.528785,1.001
1.529140,0.906
1.529495,0.811
1.529851,0.715
1.530206,0.620
1.530561,0.525
1.530917,0.429
1.531272,0.334
1.531628,0.238
1.531983,0.143
1.532338,0.048
1.532694,0.000
1.533049,-0.095
1.533404,-0.143
1.533760,-0.238
1.534115,-0.286
1.534471,-0.334
1.534826,-0.381
1.535181,-0.429
1.535537,-0.477
1.535892,-0.477
1.536247,-0.525
1.536603,-0.525
1.536958,-0.572
1.537313,-0.620
1.537669,-0.620
1.538024,-0.620
1.538380,-0.668
1.538735,-0.668
1.539090,-0.668
1.539446,-0.715
1.539801,-0.715
1.540156,-0.715
1.540512,-0.668
1.540867,-0.668
1.541222,-0.668
1.541578,-0.620
1.541933,-0.620
1.542289,-0.572
1.542644,-0.525
1.542999,-0.525
1.543355,-0.477
1.543710,-0.429
1.544065,-0.381
1.544421,-0.334
1.544776,-0.286
1.545131,-0.238
1.545487,-0.191
1.545842,-0.191
1.546198,-0.143
1.546553,-0.143
1.546908,-0.095
1.547264,-0.095
1.547619,-0.095
1.547974,-0.048
1.548330,-0.048
1.548685,0.000
1.549041,0.000
1.549396,0.000
1.549751,0.048
1.550107,0.095
1.550462,0.143
1.550817,0.191
1.551173,0.238
1.551528,0.334
1.551883,0.381
1.552239,0.429
1.552594,0.525
1.552950,0.572
1.553305,0.668
1.553660,0.715
1.554016,0.763
1.554371,0.858
1.554726,0.906
1.555082,0.954
1.555437,1.001
1.555792,1.049
1.556148,1.049
1.556503,1.097
1.556859,1.097
1.557214,1.097
1.557569,1.097
1.557925,1.097
1.558280,1.049
1.558635,1.001
1.558991,0.954
1.559346,0.858
1.559701,0.811
1.560057,0.715
1.560412,0.668
1.560768,0.572
1.561123,0.477
1.561478,0.381
1.561834,0.334
1.562189,0.238
1.562544,0.143
1.562900,0.048
1.563255,0.000
1.563611,-0.048
1.563966,-0.095
1.564321,-0.143
1.564677,-0.191
1.565032,-0.238
1.565387,-0.286
1.565743,-0.334
1.566098,-0.381
1.566453,-0.429
1.566809,-0.477
1.567164,-0.525
1.567520,-0.525
1.567875,-0.572
1.568230,-0.620
1.568586,-0.620
1.568941,-0.668
1.569296,-0.715
1.569652,-0.715
1.570007,-0.715
1.570362,-0.763
1.570718,-0.763
1.571073,-0.763
1.571429,-0.763
1.571784,-0.715
1.572139,-0.715
1.572495,-0.715
1.572850,-0.668
1.573205,-0.668
1.573561,-0.620
1.573916,-0.572
1.574271,-0.525
1.574627,-0.525
1.574982,-0.477
1.575338,-0.429
1.575693,-0.381
1.576048,-0.381
1.576404,-0.334
1.576759,-0.334
1.577114,-0.286
1.577470,-0.286
1.577825,-0.238
1.578181,-0.238
1.578536,-0.191
1.578891,-0.191
1.579247,-0.191
1.579602,-0.143
1.579957,-0.143
1.580313,-0.095
1.580668,-0.095
1.581023,-0.048
1.581379,0.000
1.581734,0.000
1.582090,0.000
1.582445,0.000
1.582800,0.048
1.583156,0.048
1.583511,0.048
1.583866,0.095
1.584222,0.095
1.584577,0.095
1.584932,0.095
1.585288,0.095
1.585643,0.048
1.585999,0.048
1.586354,0.048
1.586709,0.000
1.587065,0.000
1.587420,0.000
1.587775,-0.048
1.588131,-0.048
1.588486,-0.095
1.588842,-0.095
1.589197,-0.143
1.589552,-0.143
1.589908,-0.191
1.590263,-0.191
1.590618,-0.238
1.590974,-0.238
1.591329,-0.286
1.591684,-0.286
1.592040,-0.334
1.592395,-0.334
1.592751,-0.381
1.593106,-0.381
1.593461,-0.429
1.593817,-0.429
1.594172,-0.477
1.594527,-0.477
1.594883,-0.525
1.595238,-0.525
1.595593,-0.525
1.595949,-0.525
1.596304,-0.525
1.596660,-0.525
1.597015,-0.525
1.597370,-0.477
1.597726,-0.429
1.598081,-0.381
1.598436,-0.334
1.598792,-0.286
1.599147,-0.191
1.599502,-0.095
1.599858,0.000
1.600213,0.048
1.600569,0.143
1.600924,0.238
1.601279,0.334
1.601635,0.429
1.601990,0.525
1.602345,0.620
1.602701,0.715
1.603056,0.811
1.603412,0.858
1.603767,0.954
1.604122,1.049
1.604478,1.097
1.604833,1.192
1.605188,1.240
1.605544,1.335
1.605899,1.431
1.606254,1.478
1.606610,1.574
1.606965,1.669
1.607321,1.764
1.607676,1.812
1.608031,1.907
1.608387,2.003
1.608742,2.098
1.609097,2.193
1.609453,2.289
1.609808,2.337
1.610163,2.432
1.610519,2.480
1.610874,2.527
1.611230,2.527
1.611585,2.527
1.611940,2.527
1.612296,2.480
1.612651,2.432
1.613006,2.384
1.613362,2.289
1.613717,2.146
1.614072,2.050
1.614428,1.907
1.614783,1.764
1.615139,1.574
1.615494,1.431
1.615849,1.240
1.616205,1.049
1.616560,0.906
1.616915,0.715
1.617271,0.525
1.617626,0.381
1.617982,0.191
1.618337,0.048
1.618692,-0.095
1.619048,-0.238
1.619403,-0.381
1.619758,-0.525
1.620114,-0.620
1.620469,-0.763
1.620824,-0.858
1.621180,-0.954
1.621535,-1.001
1.621891,-1.049
1.622246,-1.097
1.622601,-1.144
1.622957,-1.192
1.623312,-1.192
1.623667,-1.192
1.624023,-1.192
1.624378,-1.192
1.624733,-1.192
1.625089,-1.192
1.625444,-1.192
1.625800,-1.144
1.626155,-1.144
1.626510,-1.097
1.626866,-1.049
1.627221,-1.001
1.627576,-0.954
1.627932,-0.906
1.628287,-0.858
1.628643,-0.763
1.628998,-0.715
1.629353,-0.668
1.629709,-0.620
1.630064,-0.572
1.630419,-0.525
1.630775,-0.477
1.631130,-0.429
1.631485,-0.429
1.631841,-0.381
1.632196,-0.334
1.632552,-0.286
1.632907,-0.286
1.633262,-0.238
1.633618,-0.191
1.633973,-0.143
1.634328,-0.143
1.634684,-0.095
1.635039,-0.048
1.635394,-0.048
1.635750,0.000
1.636105,0.000
1.636461,0.048
1.636816,0.143
1.637171,0.238
1.637527,0.334
1.637882,0.525
1.638237,0.668
1.638593,0.906
1.638948,1.192
1.639303,1.478
1.639659,1.860
1.640014,2.289
1.640370,2.766
1.640725,3.290
1.641080,3.862
1.641436,4.530
1.641791,5.245
1.642146,6.056
1.642502,6.914
1.642857,7.868
1.643213,8.869
1.643568,9.918
1.643923,11.063
1.644279,12.255
1.644634,13.494
1.644989,14.830
1.645345,16.165
1.645700,17.595
1.646055,19.121
1.646411,20.647
1.646766,22.268
1.647122,23.937
1.647477,25.702
1.647832,27.466
1.648188,29.325
1.648543,31.233
1.648898,33.188
1.649254,35.143
1.649609,37.193
1.649964,39.291
1.650320,41.389
1.650675,43.488
1.651031,45.633
1.651386,47.779
1.651741,49.925
1.652097,52.023
1.652452,54.121
1.652807,56.219
1.653163,58.222
1.653518,60.225
1.653873,62.180
1.654229,64.039
1.654584,65.851
1.654940,67.616
1.655295,69.237
1.655650,70.858
1.656006,72.336
1.656361,73.719
1.656716,75.054
1.657072,76.246
1.657427,77.343
1.657783,78.392
1.658138,79.298
1.658493,80.109
1.658849,80.776
1.659204,81.396
1.659559,81.921
1.659915,82.350
1.660270,82.684
1.660625,82.922
1.660981,83.065
1.661336,83.160
1.661692,83.208
1.662047,83.160
1.662402,83.065
1.662758,82.922
1.663113,82.731
1.663468,82.493
1.663824,82.254
1.664179,81.968
1.664534,81.682
1.664890,81.396
1.665245,81.110
1.665601,80.824
1.665956,80.585
1.666311,80.347
1.666667,80.156
1.667022,79.966
1.667377,79.823
1.667733,79.679
1.668088,79.632
1.668443,79.536
1.668799,79.489
1.669154,79.489
1.669510,79.489
1.669865,79.489
1.670220,79.489
1.670576,79.536
1.670931,79.536
1.671286,79.584
1.671642,79.584
1.671997,79.584
1.672353,79.584
1.672708,79.536
1.673063,79.441
1.673419,79.346
1.673774,79.250
1.674129,79.060
1.674485,78.869
1.674840,78.630
1.675195,78.344
1.675551,78.011
1.675906,77.629
1.676262,77.200
1.676617,76.675
1.676972,76.151
1.677328,75.579
1.677683,74.959
1.678038,74.291
1.678394,73.528
1.678749,72.765
1.679104,71.907
1.679460,71.049
1.679815,70.095
1.680171,69.141
1.680526,68.140
1.680881,67.043
1.681237,65.947
1.681592,64.802
1.681947,63.610
1.682303,62.370
1.682658,61.083
1.683014,59.748
1.683369,58.317
1.683724,56.887
1.684080,55.408
1.684435,53.835
1.684790,52.261
1.685146,50.592
1.685501,48.876
1.685856,47.112
1.686212,45.252
1.686567,43.344
1.686923,41.389
1.687278,39.387
1.687633,37.289
1.687989,35.143
1.688344,32.949
1.688699,30.708
1.689055,28.419
1.689410,26.083
1.689765,23.746
1.690121,21.315
1.690476,18.930
1.690832,16.451
1.691187,13.971
1.691542,11.539
1.691898,9.060
1.692253,6.580
1.692608,4.101
1.692964,1.621
1.693319,-0.763
1.693674,-3.195
1.694030,-5.579
1.694385,-7.963
1.694741,-10.300
1.695096,-12.589
1.695451,-14.830
1.695807,-17.023
1.696162,-19.169
1.696517,-21.315
1.696873,-23.317
1.697228,-25.320
1.697584,-27.227
1.697939,-29.087
1.698294,-30.899
1.698650,-32.616
1.699005,-34.285
1.699360,-35.906
1.699716,-37.479
1.700071,-39.005
1.700426,-40.483
1.700782,-41.914
1.701137,-43.297
1.701493,-44.727
1.701848,-46.062
1.702203,-47.445
1.702559,-48.828
1.702914,-50.163
1.703269,-51.546
1.703625,-52.929
1.703980,-54.312
1.704335,-55.695
1.704691,-57.125
1.705046,-58.603
1.705402,-60.081
1.705757,-61.607
1.706112,-63.133
1.706468,-64.754
1.706823,-66.376
1.707178,-68.045
1.707534,-69.761
1.707889,-71.526
1.708244,-73.290
1.708600,-75.102
1.708955,-76.962
1.709311,-78.869
1.709666,-80.776
1.710021,-82.684
1.710377,-84.639
1.710732,-86.641
1.711087,-88.644
1.711443,-90.647
1.711798,-92.697
1.712154,-94.700
1.712509,-96.750
1.712864,-98.801
1.713220,-100.803
1.713575,-102.806
1.713930,-104.761
1.714286,-106.716
1.714641,-108.624
1.714996,-110.483
1.715352,-112.247
1.715707,-113.964
1.716063,-115.633
1.716418,-117.207
1.716773,-118.685
1.717129,-120.068
1.717484,-121.355
1.717839,-122.595
1.718195,-123.692
1.718550,-124.693
1.718905,-125.551
1.719261,-126.362
1.719616,-127.029
1.719972,-127.602
1.720327,-128.078
1.720682,-128.412
1.721038,-128.698
1.721393,-128.794
1.721748,-128.841
1.722104,-128.794
1.722459,-128.651
1.722814,-128.365
1.723170,-128.031
1.723525,-127.602
1.723881,-127.077
1.724236,-126.457
1.724591,-125.790
1.724947,-125.027
1.725302,-124.216
1.725657,-123.310
1.726013,-122.404
1.726368,-121.403
1.726724,-120.401
1.727079,-119.305
1.727434,-118.208
1.727790,-117.111
1.728145,-115.919
1.728500,-114.775
1.728856,-113.583
1.729211,-112.343
1.729566,-111.103
1.729922,-109.863
1.730277,-108.624
1.730633,-107.336
1.730988,-106.096
1.731343,-104.809
1.731699,-103.521
1.732054,-102.282
1.732409,-100.994
1.732765,-99.754
1.733120,-98.515
1.733475,-97.275
1.733831,-96.035
1.734186,-94.843
1.734542,-93.651
1.734897,-92.506
1.735252,-91.362
1.735608,-90.265
1.735963,-89.169
1.736318,-88.120
1.736674,-87.070
1.737029,-86.069
1.737385,-85.115
1.737740,-84.162
1.738095,-83.208
1.738451,-82.302
1.738806,-81.444
1.739161,-80.585
1.739517,-79.775
1.739872,-78.964
1.740227,-78.201
1.740583,-77.438
1.740938,-76.675
1.741294,-75.960
1.741649,-75.293
1.742004,-74.625
1.742360,-73.957
1.742715,-73.290
1.743070,-72.670
1.743426,-72.050
1.743781,-71.430
1.744136,-70.858
1.744492,-70.238
1.744847,-69.666
1.745203,-69.094
1.745558,-68.521
1.745913,-67.949
1.746269,-67.377
1.746624,-66.853
1.746979,-66.280
1.747335,-65.708
1.747690,-65.136
1.748045,-64.516
1.748401,-63.944
1.748756,-63.324
1.749112,-62.656
1.749467,-62.037
1.749822,-61.369
1.750178,-60.654
1.750533,-59.986
1.750888,-59.271
1.751244,-58.556
1.751599,-57.840
1.751955,-57.077
1.752310,-56.362
1.752665,-55.599
1.753021,-54.836
1.753376,-54.073
1.753731,-53.310
1.754087,-52.547
1.754442,-51.785
1.754797,-51.022
1.755153,-50.259
1.755508,-49.496
1.755864,-48.780
1.756219,-48.018
1.756574,-47.302
1.756930,-46.539
1.757285,-45.824
1.757640,-45.109
1.757996,-44.394
1.758351,-43.726
1.758706,-43.058
1.759062,-42.343
1.759417,-41.676
1.759773,-41.056
1.760128,-40.388
1.760483,-39.768
1.760839,-39.101
1.761194,-38.481
1.761549,-37.909
1.761905,-37.289
1.762260,-36.716
1.762615,-36.097
1.762971,-35.524
1.763326,-34.952
1.763682,-34.380
1.764037,-33.808
1.764392,-33.236
1.764748,-32.711
1.765103,-32.139
1.765458,-31.567
1.765814,-30.994
1.766169,-30.422
1.766525,-29.850
1.766880,-29.278
1.767235,-28.706
1.767591,-28.133
1.767946,-27.561
1.768301,-26.989
1.768657,-26.464
1.769012,-25.892
1.769367,-25.320
1.769723,-24.796
1.770078,-24.271
1.770434,-23.699
1.770789,-23.174
1.771144,-22.650
1.771500,-22.173
1.771855,-21.648
1.772210,-21.124
1.772566,-20.647
1.772921,-20.170
1.773276,-19.693
1.773632,-19.217
1.773987,-18.740
1.774343,-18.311
1.774698,-17.834
1.775053,-17.405
1.775409,-16.928
1.775764,-16.499
1.776119,-16.069
1.776475,-15.640
1.776830,-15.211
1.777186,-14.782
1.777541,-14.353
1.777896,-13.971
1.778252,-13.542
1.778607,-13.161
1.778962,-12.732
1.779318,-12.350
1.779673,-11.969
1.780028,-11.587
1.780384,-11.158
1.780739,-10.777
1.781095,-10.395
1.781450,-10.014
1.781805,-9.584
1.782161,-9.203
1.782516,-8.774
1.782871,-8.392
1.783227,-7.963
1.783582,-7.534
1.783937,-7.153
1.784293,-6.723
1.784648,-6.294
1.785004,-5.913
1.785359,-5.484
1.785714,-5.054
1.786070,-4.625
1.786425,-4.244
1.786780,-3.815
1.787136,-3.433
1.787491,-3.004
1.787846,-2.623
1.788202,-2.193
1.788557,-1.812
1.788913,-1.383
1.789268,-1.001
1.789623,-0.620
1.789979,-0.238
1.790334,0.095
1.790689,0.477
1.791045,0.858
1.791400,1.240
1.791756,1.574
1.792111,1.955
1.792466,2.337
1.792822,2.670
1.793177,3.004
1.793532,3.386
1.793888,3.719
1.794243,4.053
1.794598,4.387
1.794954,4.721
1.795309,5.054
1.795665,5.388
1.796020,5.722
1.796375,6.008
1.796731,6.342
1.797086,6.676
1.797441,7.010
1.797797,7.343
1.798152,7.725
1.798507,8.059
1.798863,8.440
1.799218,8.774
1.799574,9.155
1.799929,9.537
1.800284,9.918
1.800640,10.347
1.800995,10.729
1.801350,11.110
1.801706,11.492
1.802061,11.873
1.802416,12.255
1.802772,12.636
1.803127,12.970
1.803483,13.304
1.803838,13.590
1.804193,13.876
1.804549,14.114
1.804904,14.305
1.805259,14.496
1.805615,14.544
1.805970,14.591
1.806326,14.544
1.806681,14.448
1.807036,14.257
1.807392,13.971
1.807747,13.590
1.808102,13.161
1.808458,12.589
1.808813,11.969
1.809168,11.253
1.809524,10.443
1.809879,9.537
1.810235,8.535
1.810590,7.486
1.810945,6.294
1.811301,5.054
1.811656,3.767
1.812011,2.337
1.812367,0.906
1.812722,-0.620
1.813077,-2.193
1.813433,-3.862
1.813788,-5.627
1.814144,-7.391
1.814499,-9.251
1.814854,-11.110
1.815210,-13.065
1.815565,-15.020
1.815920,-17.023
1.816276,-19.073
1.816631,-21.124
1.816986,-23.174
1.817342,-25.272
1.817697,-27.370
1.818053,-29.469
1.818408,-31.567
1.818763,-33.665
1.819119,-35.667
1.819474,-37.670
1.819829,-39.577
1.820185,-41.437
1.820540,-43.154
1.820896,-44.727
1.821251,-46.110
1.821606,-47.350
1.821962,-48.304
1.822317,-49.019
1.822672,-49.400
1.823028,-49.448
1.823383,-49.162
1.823738,-48.447
1.824094,-47.302
1.824449,-45.681
1.824805,-43.583
1.825160,-40.913
1.825515,-37.718
1.825871,-33.855
1.826226,-29.421
1.826581,-24.319
1.826937,-18.549
1.827292,-12.112
1.827647,-5.007
1.828003,2.766
1.828358,11.253
1.828714,20.409
1.829069,30.231
1.829424,40.722
1.829780,51.880
1.830135,63.610
1.830490,75.960
1.830846,88.882
1.831201,102.329
1.831557,116.301
1.831912,130.701
1.832267,145.578
1.832623,160.885
1.832978,176.525
1.833333,192.499
1.833689,208.759
1.834044,225.258
1.834399,241.947
1.834755,258.732
1.835110,275.660
1.835466,292.635
1.835821,309.658
1.836176,326.586
1.836532,343.466
1.836887,360.250
1.837242,376.892
1.837598,393.343
1.837953,409.555
1.838308,425.529
1.838664,441.265
1.839019,456.619
1.839375,471.687
1.839730,486.422
1.840085,500.774
1.840441,514.698
1.840796,528.288
1.841151,541.401
1.841507,554.085
1.841862,566.292
1.842217,578.070
1.842573,589.323
1.842928,600.052
1.843284,610.256
1.843639,619.841
1.843994,628.853
1.844350,637.197
1.844705,644.827
1.845060,651.741
1.845416,657.892
1.845771,663.280
1.846127,667.810
1.846482,671.482
1.846837,674.248
1.847193,676.107
1.847548,676.966
1.847903,676.870
1.848259,675.774
1.848614,673.676
1.848969,670.481
1.849325,666.285
1.849680,660.992
1.850036,654.697
1.850391,647.306
1.850746,638.914
1.851102,629.425
1.851457,618.982
1.851812,607.491
1.852168,595.045
1.852523,581.598
1.852878,567.245
1.853234,552.034
1.853589,535.917
1.853945,519.037
1.854300,501.299
1.854655,482.893
1.855011,463.724
1.855366,443.935
1.855721,423.574
1.856077,402.641
1.856432,381.231
1.856787,359.344
1.857143,337.124
1.857498,314.569
1.857854,291.729
1.858209,268.650
1.858564,245.380
1.858920,222.063
1.859275,198.603
1.859630,175.142
1.859986,151.682
1.860341,128.317
1.860697,105.000
1.861052,81.873
1.861407,58.889
1.861763,36.192
1.862118,13.685
1.862473,-8.488
1.862829,-30.375
1.863184,-51.928
1.863539,-73.099
1.863895,-93.937
1.864250,-114.393
1.864606,-134.373
1.864961,-154.018
1.865316,-173.187
1.865672,-191.927
1.866027,-210.190
1.866382,-228.024
1.866738,-245.428
1.867093,-262.308
1.867448,-278.664
1.867804,-294.542
1.868159,-309.944
1.868515,-324.774
1.868870,-339.031
1.869225,-352.764
1.869581,-365.877
1.869936,-378.418
1.870291,-390.339
1.870647,-401.640
1.871002,-412.273
1.871357,-422.239
1.871713,-431.538
1.872068,-440.121
1.872424,-448.036
1.872779,-455.236
1.873134,-461.721
1.873490,-467.491
1.873845,-472.546
1.874200,-476.837
1.874556,-480.461
1.874911,-483.322
1.875267,-485.516
1.875622,-486.994
1.875977,-487.757
1.876333,-487.900
1.876688,-487.328
1.877043,-486.183
1.877399,-484.419
1.877754,-482.082
1.878109,-479.174
1.878465,-475.788
1.878820,-471.830
1.879176,-467.443
1.879531,-462.627
1.879886,-457.382
1.880242,-451.756
1.880597,-445.795
1.880952,-439.501
1.881308,-432.968
1.881663,-426.102
1.882018,-419.044
1.882374,-411.797
1.882729,-404.358
1.883085,-396.824
1.883440,-389.147
1.883795,-381.374
1.884151,-373.602
1.884506,-365.782
1.884861,-357.962
1.885217,-350.189
1.885572,-342.464
1.885928,-334.835
1.886283,-327.301
1.886638,-319.862
1.886994,-312.567
1.887349,-305.462
1.887704,-298.500
1.888060,-291.729
1.888415,-285.149
1.888770,-278.807
1.889126,-272.655
1.889481,-266.743
1.889837,-261.068
1.890192,-255.632
1.890547,-250.435
1.890903,-245.476
1.891258,-240.707
1.891613,-236.225
1.891969,-231.981
1.892324,-227.976
1.892679,-224.161
1.893035,-220.585
1.893390,-217.199
1.893746,-214.052
1.894101,-211.096
1.894456,-208.282
1.894812,-205.708
1.895167,-203.276
1.895522,-200.987
1.895878,-198.841
1.896233,-196.838
1.896588,-194.931
1.896944,-193.167
1.897299,-191.498
1.897655,-189.877
1.898010,-188.351
1.898365,-186.920
1.898721,-185.490
1.899076,-184.155
1.899431,-182.819
1.899787,-181.580
1.900142,-180.292
1.900498,-179.100
1.900853,-177.860
1.901208,-176.668
1.901564,-175.476
1.901919,-174.284
1.902274,-173.092
1.902630,-171.900
1.902985,-170.660
1.903340,-169.420
1.903696,-168.180
1.904051,-166.893
1.904407,-165.606
1.904762,-164.318
1.905117,-162.983
1.905473,-161.600
1.905828,-160.217
1.906183,-158.787
1.906539,-157.356
1.906894,-155.878
1.907249,-154.400
1.907605,-152.874
1.907960,-151.348
1.908316,-149.775
1.908671,-148.153
1.909026,-146.580
1.909382,-144.911
1.909737,-143.242
1.910092,-141.573
1.910448,-139.904
1.910803,-138.187
1.911158,-136.423
1.911514,-134.706
1.911869,-132.942
1.912225,-131.178
1.912580,-129.414
1.912935,-127.602
1.913291,-125.837
1.913646,-124.025
1.914001,-122.261
1.914357,-120.497
1.914712,-118.732
1.915068,-116.968
1.915423,-115.204
1.915778,-113.440
1.916134,-111.723
1.916489,-110.006
1.916844,-108.337
1.917200,-106.668
1.917555,-105.000
1.917910,-103.331
1.918266,-101.709
1.918621,-100.136
1.918977,-98.562
1.919332,-96.989
1.919687,-95.415
1.920043,-93.889
1.920398,-92.411
1.920753,-90.885
1.921109,-89.407
1.921464,-87.929
1.921819,-86.498
1.922175,-85.068
1.922530,-83.637
1.922886,-82.254
1.923241,-80.872
1.923596,-79.489
1.923952,-78.154
1.924307,-76.818
1.924662,-75.483
1.925018,-74.196
1.925373,-72.908
1.925729,-71.621
1.926084,-70.333
1.926439,-69.094
1.926795,-67.854
1.927150,-66.614
1.927505,-65.422
1.927861,-64.230
1.928216,-62.990
1.928571,-61.798
1.928927,-60.606
1.929282,-59.414
1.929638,-58.222
1.929993,-57.030
1.930348,-55.838
1.930704,-54.646
1.931059,-53.406
1.931414,-52.214
1.931770,-50.974
1.932125,-49.734
1.932480,-48.542
1.932836,-47.302
1.933191,-46.062
1.933547,-44.870
1.933902,-43.678
1.934257,-42.439
1.934613,-41.246
1.934968,-40.102
1.935323,-38.910
1.935679,-37.766
1.936034,-36.621
1.936389,-35.524
1.936745,-34.380
1.937100,-33.283
1.937456,-32.234
1.937811,-31.137
1.938166,-30.088
1.938522,-29.087
1.938877,-28.038
1.939232,-27.037
1.939588,-26.083
1.939943,-25.082
1.940299,-24.128
1.940654,-23.222
1.941009,-22.268
1.941365,-21.362
1.941720,-20.456
1.942075,-19.550
1.942431,-18.692
1.942786,-17.786
1.943141,-16.928
1.943497,-16.069
1.943852,-15.259
1.944208,-14.400
1.944563,-13.542
1.944918,-12.732
1.945274,-11.873
1.945629,-11.063
1.945984,-10.204
1.946340,-9.394
1.946695,-8.535
1.947050,-7.677
1.947406,-6.866
1.947761,-6.008
1.948117,-5.102
1.948472,-4.244
1.948827,-3.386
1.949183,-2.480
1.949538,-1.621
1.949893,-0.715
1.950249,0.143
1.950604,1.001
1.950959,1.907
1.951315,2.766
1.951670,3.672
1.952026,4.530
1.952381,5.388
1.952736,6.247
1.953092,7.105
1.953447,7.963
1.953802,8.774
1.954158,9.632
1.954513,10.443
1.954869,11.206
1.955224,12.016
1.955579,12.779
1.955935,13.542
1.956290,14.257
1.956645,15.020
1.957001,15.736
1.957356,16.451
1.957711,17.118
1.958067,17.834
1.958422,18.501
1.958778,19.169
1.959133,19.789
1.959488,20.456
1.959844,21.076
1.960199,21.696
1.960554,22.316
1.960910,22.936
1.961265,23.556
1.961620,24.176
1.961976,24.748
1.962331,25.368
1.962687,25.940
1.963042,26.560
1.963397,27.132
1.963753,27.752
1.964108,28.324
1.964463,28.944
1.964819,29.516
1.965174,30.136
1.965529,30.708
1.965885,31.328
1.966240,31.948
1.966596,32.520
1.966951,33.140
1.967306,33.712
1.967662,34.332
1.968017,34.904
1.968372,35.524
1.968728,36.097
1.969083,36.669
1.969439,37.241
1.969794,37.813
1.970149,38.385
1.970505,38.910
1.970860,39.434
1.971215,39.959
1.971571,40.483
1.971926,41.008
1.972281,41.485
1.972637,41.962
1.972992,42.439
1.973348,42.915
1.973703,43.344
1.974058,43.821
1.974414,44.203
1.974769,44.632
1.975124,45.061
1.975480,45.443
1.975835,45.824
1.976190,46.206
1.976546,46.539
1.976901,46.921
1.977257,47.255
1.977612,47.588
1.977967,47.922
1.978323,48.256
1.978678,48.542
1.979033,48.828
1.979389,49.162
1.979744,49.448
1.980100,49.686
1.980455,49.973
1.980810,50.259
1.981166,50.497
1.981521,50.783
1.981876,51.022
1.982232,51.260
1.982587,51.498
1.982942,51.737
1.983298,51.975
1.983653,52.261
1.984009,52.500
1.984364,52.738
1.984719,52.977
1.985075,53.215
1.985430,53.501
1.985785,53.740
1.986141,54.026
1.986496,54.312
1.986851,54.598
1.987207,54.884
1.987562,55.170
1.987918,55.456
1.988273,55.790
1.988628,56.076
1.988984,56.410
1.989339,56.744
1.989694,57.077
1.990050,57.411
1.990405,57.745
1.990760,58.079
1.991116,58.413
1.991471,58.746
1.991827,59.032
1.992182,59.366
1.992537,59.700
1.992893,60.034
1.993248,60.320
1.993603,60.654
1.993959,60.940
1.994314,61.226
1.994670,61.560
1.995025,61.798
1.995380,62.084
1.995736,62.370
1.996091,62.656
1.996446,62.943
1.996802,63.181
1.997157,63.467
1.997512,63.753
1.997868,63.992
1.998223,64.278
1.998579,64.564
1.998934,64.802
1.999289,65.041
1.999645,65.327
2.000000,65.565
2.000355,65.804
2.000711,66.042
2.001066,66.280
2.001421,66.471
2.001777,66.710
2.002132,66.900
2.002488,67.091
2.002843,67.282
2.003198,67.425
2.003554,67.616
2.003909,67.759
2.004264,67.902
2.004620,68.045
2.004975,68.188
2.005330,68.283
2.005686,68.426
2.006041,68.521
2.006397,68.617
2.006752,68.712
2.007107,68.760
2.007463,68.855
2.007818,68.903
2.008173,68.998
2.008529,69.046
2.008884,69.046
2.009240,69.094
2.009595,69.141
2.009950,69.141
2.010306,69.141
2.010661,69.189
2.011016,69.189
2.011372,69.189
2.011727,69.189
2.012082,69.189
2.012438,69.237
2.012793,69.237
2.013149,69.284
2.013504,69.332
2.013859,69.427
2.014215,69.475
2.014570,69.571
2.014925,69.666
2.015281,69.761
2.015636,69.857
2.015991,70.000
2.016347,70.143
2.016702,70.238
2.017058,70.381
2.017413,70.524
2.017768,70.620
2.018124,70.763
2.018479,70.858
2.018834,70.953
2.019190,71.096
2.019545,71.144
2.019900,71.239
2.020256,71.287
2.020611,71.383
2.020967,71.383
2.021322,71.430
2.021677,71.430
2.022033,71.430
2.022388,71.383
2.022743,71.383
2.023099,71.335
2.023454,71.239
2.023810,71.144
2.024165,71.049
2.024520,70.953
2.024876,70.810
2.025231,70.667
2.025586,70.524
2.025942,70.381
2.026297,70.238
2.026652,70.047
2.027008,69.904
2.027363,69.714
2.027719,69.571
2.028074,69.380
2.028429,69.189
2.028785,68.998
2.029140,68.855
2.029495,68.665
2.029851,68.474
2.030206,68.283
2.030561,68.140
2.030917,67.949
2.031272,67.806
2.031628,67.616
2.031983,67.472
2.032338,67.282
2.032694,67.139
2.033049,66.996
2.033404,66.805
2.033760,66.662
2.034115,66.519
2.034471,66.376
2.034826,66.233
2.035181,66.090
2.035537,65.947
2.035892,65.804
2.036247,65.708
2.036603,65.613
2.036958,65.517
2.037313,65.470
2.037669,65.422
2.038024,65.422
2.038380,65.470
2.038735,65.517
2.039090,65.613
2.039446,65.756
2.039801,65.947
2.040156,66.185
2.040512,66.471
2.040867,66.853
2.041222,67.234
2.041578,67.711
2.041933,68.283
2.042289,68.855
2.042644,69.523
2.042999,70.286
2.043355,71.049
2.043710,71.907
2.044065,72.813
2.044421,73.814
2.044776,74.816
2.045131,75.865
2.045487,77.009
2.045842,78.154
2.046198,79.346
2.046553,80.585
2.046908,81.825
2.047264,83.113
2.047619,84.448
2.047974,85.783
2.048330,87.166
2.048685,88.501
2.049041,89.884
2.049396,91.314
2.049751,92.697
2.050107,94.128
2.050462,95.558
2.050817,96.989
2.051173,98.419
2.051528,99.850
2.051883,101.280
2.052239,102.711
2.052594,104.094
2.052950,105.524
2.053305,106.907
2.053660,108.290
2.054016,109.625
2.054371,110.960
2.054726,112.295
2.055082,113.583
2.055437,114.822
2.055792,116.014
2.056148,117.207
2.056503,118.303
2.056859,119.400
2.057214,120.449
2.057569,121.403
2.057925,122.356
2.058280,123.215
2.058635,124.073
2.058991,124.836
2.059346,125.551
2.059701,126.219
2.060057,126.839
2.060412,127.363
2.060768,127.888
2.061123,128.317
2.061478,128.746
2.061834,129.080
2.062189,129.414
2.062544,129.700
2.062900,129.938
2.063255,130.177
2.063611,130.415
2.063966,130.653
2.064321,130.892
2.064677,131.083
2.065032,131.321
2.065387,131.607
2.065743,131.845
2.066098,132.132
2.066453,132.465
2.066809,132.751
2.067164,133.133
2.067520,133.514
2.067875,133.896
2.068230,134.325
2.068586,134.754
2.068941,135.231
2.069296,135.660
2.069652,136.137
2.070007,136.662
2.070362,137.138
2.070718,137.615
2.071073,138.140
2.071429,138.617
2.071784,139.093
2.072139,139.523
2.072495,139.952
2.072850,140.381
2.073205,140.762
2.073561,141.096
2.073916,141.430
2.074271,141.716
2.074627,141.954
2.074982,142.145
2.075338,142.288
2.075693,142.431
2.076048,142.479
2.076404,142.527
2.076759,142.527
2.077114,142.479
2.077470,142.384
2.077825,142.241
2.078181,142.097
2.078536,141.907
2.078891,141.668
2.079247,141.430
2.079602,141.191
2.079957,140.905
2.080313,140.667
2.080668,140.381
2.081023,140.095
2.081379,139.856
2.081734,139.618
2.082090,139.380
2.082445,139.141
2.082800,138.950
2.083156,138.712
2.083511,138.521
2.083866,138.330
2.084222,138.140
2.084577,137.901
2.084932,137.711
2.085288,137.472
2.085643,137.186
2.085999,136.900
2.086354,136.566
2.086709,136.232
2.087065,135.851
2.087420,135.422
2.087775,134.945
2.088131,134.420
2.088486,133.848
2.088842,133.228
2.089197,132.561
2.089552,131.845
2.089908,131.035
2.090263,130.224
2.090618,129.318
2.090974,128.365
2.091329,127.316
2.091684,126.266
2.092040,125.122
2.092395,123.930
2.092751,122.690
2.093106,121.450
2.093461,120.115
2.093817,118.780
2.094172,117.445
2.094527,116.062
2.094883,114.679
2.095238,113.297
2.095593,111.866
2.095949,110.483
2.096304,109.100
2.096660,107.718
2.097015,106.335
2.097370,104.952
2.097726,103.617
2.098081,102.282
2.098436,100.946
2.098792,99.611
2.099147,98.324
2.099502,97.036
2.099858,95.797
2.100213,94.557
2.100569,93.317
2.100924,92.077
2.101279,90.885
2.101635,89.741
2.101990,88.596
2.102345,87.452
2.102701,86.403
2.103056,85.306
2.103412,84.305
2.103767,83.303
2.104122,82.350
2.104478,81.396
2.104833,80.490
2.105188,79.632
2.105544,78.773
2.105899,77.963
2.106254,77.152
2.106610,76.342
2.106965,75.579
2.107321,74.768
2.107676,74.005
2.108031,73.242
2.108387,72.479
2.108742,71.669
2.109097,70.906
2.109453,70.095
2.109808,69.284
2.110163,68.474
2.110519,67.616
2.110874,66.805
2.111230,65.947
2.111585,65.088
2.111940,64.182
2.112296,63.324
2.112651,62.418
2.113006,61.512
2.113362,60.558
2.113717,59.652
2.114072,58.699
2.114428,57.745
2.114783,56.744
2.115139,55.790
2.115494,54.789
2.115849,53.740
2.116205,52.738
2.116560,51.689
2.116915,50.592
2.117271,49.496
2.117626,48.399
2.117982,47.302
2.118337,46.158
2.118692,44.966
2.119048,43.821
2.119403,42.629
2.119758,41.389
2.120114,40.150
2.120469,38.910
2.120824,37.622
2.121180,36.335
2.121535,35.048
2.121891,33.712
2.122246,32.330
2.122601,30.947
2.122957,29.516
2.123312,28.086
2.123667,26.655
2.124023,25.177
2.124378,23.699
2.124733,22.173
2.125089,20.647
2.125444,19.121
2.125800,17.548
2.126155,15.974
2.126510,14.400
2.126866,12.827
2.127221,11.253
2.127576,9.680
2.127932,8.106
2.128287,6.533
2.128643,4.959
2.128998,3.338
2.129353,1.764
2.129709,0.191
2.130064,-1.383
2.130419,-2.956
2.130775,-4.578
2.131130,-6.199
2.131485,-7.820
2.131841,-9.441
2.132196,-11.063
2.132552,-12.732
2.132907,-14.400
2.133262,-16.069
2.133618,-17.738
2.133973,-19.455
2.134328,-21.172
2.134684,-22.888
2.135039,-24.652
2.135394,-26.417
2.135750,-28.229
2.136105,-30.088
2.136461,-31.996
2.136816,-33.903
2.137171,-35.858
2.137527,-37.909
2.137882,-39.959
2.138237,-42.057
2.138593,-44.203
2.138948,-46.396
2.139303,-48.590
2.139659,-50.879
2.140014,-53.167
2.140370,-55.504
2.140725,-57.840
2.141080,-60.225
2.141436,-62.609
2.141791,-65.041
2.142146,-67.472
2.142502,-69.904
2.142857,-72.384
2.143213,-74.816
2.143568,-77.295
2.143923,-79.727
2.144279,-82.159
2.144634,-84.543
2.144989,-86.927
2.145345,-89.312
2.145700,-91.648
2.146055,-93.937
2.146411,-96.178
2.146766,-98.324
2.147122,-100.470
2.147477,-102.568
2.147832,-104.570
2.148188,-106.573
2.148543,-108.480
2.148898,-110.292
2.149254,-112.104
2.149609,-113.821
2.149964,-115.490
2.150320,-117.064
2.150675,-118.637
2.151031,-120.163
2.151386,-121.593
2.151741,-123.024
2.152097,-124.454
2.152452,-125.790
2.152807,-127.172
2.153163,-128.508
2.153518,-129.843
2.153873,-131.178
2.154229,-132.513
2.154584,-133.896
2.154940,-135.231
2.155295,-136.662
2.155650,-138.044
2.156006,-139.523
2.156361,-141.001
2.156716,-142.479
2.157072,-144.053
2.157427,-145.626
2.157783,-147.200
2.158138,-148.869
2.158493,-150.490
2.158849,-152.206
2.159204,-153.875
2.159559,-155.592
2.159915,-157.261
2.160270,-158.978
2.160625,-160.646
2.160981,-162.315
2.161336,-163.984
2.161692,-165.606
2.162047,-167.179
2.162402,-168.753
2.162758,-170.231
2.163113,-171.709
2.163468,-173.092
2.163824,-174.475
2.164179,-175.762
2.164534,-177.050
2.164890,-178.242
2.165245,-179.434
2.165601,-180.531
2.165956,-181.627
2.166311,-182.724
2.166667,-183.773
2.167022,-184.774
2.167377,-185.776
2.167733,-186.777
2.168088,-187.731
2.168443,-188.684
2.168799,-189.638
2.169154,-190.592
2.169510,-191.545
2.169865,-192.499
2.170220,-193.501
2.170576,-194.454
2.170931,-195.456
2.171286,-196.457
2.171642,-197.458
2.171997,-198.507
2.172353,-199.556
2.172708,-200.653
2.173063,-201.702
2.173419,-202.799
2.173774,-203.896
2.174129,-204.992
2.174485,-206.137
2.174840,-207.233
2.175195,-208.330
2.175551,-209.427
2.175906,-210.524
2.176262,-211.620
2.176617,-212.669
2.176972,-213.766
2.177328,-214.767
2.177683,-215.816
2.178038,-216.866
2.178394,-217.867
2.178749,-218.821
2.179104,-219.822
2.179460,-220.776
2.179815,-221.682
2.180171,-222.635
2.180526,-223.494
2.180881,-224.400
2.181237,-225.258
2.181592,-226.068
2.181947,-226.879
2.182303,-227.642
2.182658,-228.405
2.183014,-229.120
2.183369,-229.788
2.183724,-230.455
2.184080,-231.075
2.184435,-231.647
2.184790,-232.172
2.185146,-232.649
2.185501,-233.126
2.185856,-233.507
2.186212,-233.889
2.186567,-234.222
2.186923,-234.461
2.187278,-234.699
2.187633,-234.890
2.187989,-235.033
2.188344,-235.128
2.188699,-235.176
2.189055,-235.176
2.189410,-235.176
2.189765,-235.128
2.190121,-235.081
2.190476,-234.985
2.190832,-234.842
2.191187,-234.747
2.191542,-234.556
2.191898,-234.413
2.192253,-234.222
2.192608,-234.032
2.192964,-233.793
2.193319,-233.555
2.193674,-233.269
2.194030,-232.983
2.194385,-232.649
2.194741,-232.315
2.195096,-231.934
2.195451,-231.504
2.195807,-231.028
2.196162,-230.503
2.196517,-229.931
2.196873,-229.263
2.197228,-228.596
2.197584,-227.833
2.197939,-227.022
2.198294,-226.116
2.198650,-225.115
2.199005,-224.113
2.199360,-222.969
2.199716,-221.825
2.200071,-220.537
2.200426,-219.202
2.200782,-217.819
2.201137,-216.389
2.201493,-214.815
2.201848,-213.242
2.202203,-211.573
2.202559,-209.856
2.202914,-208.092
2.203269,-206.280
2.203625,-204.372
2.203980,-202.465
2.204335,-200.462
2.204691,-198.460
2.205046,-196.409
2.205402,-194.311
2.205757,-192.213
2.206112,-190.067
2.206468,-187.874
2.206823,-185.680
2.207178,-183.487
2.207534,-181.246
2.207889,-179.005
2.208244,-176.764
2.208600,-174.475
2.208955,-172.186
2.209311,-169.945
2.209666,-167.656
2.210021,-165.367
2.210377,-163.078
2.210732,-160.837
2.211087,-158.596
2.211443,-156.307
2.211798,-154.114
2.212154,-151.873
2.212509,-149.679
2.212864,-147.486
2.213220,-145.340
2.213575,-143.194
2.213930,-141.048
2.214286,-138.903
2.214641,-136.757
2.214996,-134.659
2.215352,-132.561
2.215707,-130.463
2.216063,-128.365
2.216418,-126.314
2.216773,-124.264
2.217129,-122.213
2.217484,-120.211
2.217839,-118.208
2.218195,-116.205
2.218550,-114.202
2.218905,-112.247
2.219261,-110.340
2.219616,-108.385
2.219972,-106.478
2.220327,-104.618
2.220682,-102.758
2.221038,-100.946
2.221393,-99.134
2.221748,-97.322
2.222104,-95.558
2.222459,-93.842
2.222814,-92.125
2.223170,-90.456
2.223525,-88.787
2.223881,-87.166
2.224236,-85.545
2.224591,-83.971
2.224947,-82.397
2.225302,-80.872
2.225657,-79.346
2.226013,-77.820
2.226368,-76.342
2.226724,-74.863
2.227079,-73.433
2.227434,-72.002
2.227790,-70.572
2.228145,-69.141
2.228500,-67.759
2.228856,-66.376
2.229211,-64.993
2.229566,-63.658
2.229922,-62.275
2.230277,-60.892
2.230633,-59.509
2.230988,-58.126
2.231343,-56.744
2.231699,-55.361
2.232054,-53.978
2.232409,-52.595
2.232765,-51.212
2.233120,-49.829
2.233475,-48.399
2.233831,-47.016
2.234186,-45.633
2.234542,-44.250
2.234897,-42.868
2.235252,-41.485
2.235608,-40.102
2.235963,-38.719
2.236318,-37.384
2.236674,-36.001
2.237029,-34.666
2.237385,-33.331
2.237740,-31.996
2.238095,-30.708
2.238451,-29.421
2.238806,-28.133
2.239161,-26.846
2.239517,-25.606
2.239872,-24.366
2.240227,-23.174
2.240583,-21.982
2.240938,-20.790
2.241294,-19.598
2.241649,-18.454
2.242004,-17.309
2.242360,-16.165
2.242715,-15.068
2.243070,-13.924
2.243426,-12.827
2.243781,-11.730
2.244136,-10.633
2.244492,-9.537
2.244847,-8.440
2.245203,-7.343
2.245558,-6.294
2.245913,-5.198
2.246269,-4.148
2.246624,-3.052
2.246979,-2.003
2.247335,-0.906
2.247690,0.143
2.248045,1.240
2.248401,2.289
2.248756,3.386
2.249112,4.482
2.249467,5.579
2.249822,6.676
2.250178,7.772
2.250533,8.821
2.250888,9.918
2.251244,11.015
2.251599,12.064
2.251955,13.113
2.252310,14.162
2.252665,15.211
2.253021,16.260
2.253376,17.262
2.253731,18.263
2.254087,19.264
2.254442,20.218
2.254797,21.172
2.255153,22.125
2.255508,23.031
2.255864,23.890
2.256219,24.748
2.256574,25.558
2.256930,26.369
2.257285,27.132
2.257640,27.895
2.257996,28.658
2.258351,29.373
2.258706,30.088
2.259062,30.756
2.259417,31.471
2.259773,32.139
2.260128,32.806
2.260483,33.474
2.260839,34.142
2.261194,34.809
2.261549,35.477
2.261905,36.144
2.262260,36.860
2.262615,37.527
2.262971,38.242
2.263326,38.958
2.263682,39.721
2.264037,40.436
2.264392,41.199
2.264748,41.962
2.265103,42.772
2.265458,43.583
2.265814,44.394
2.266169,45.204
2.266525,46.015
2.266880,46.873
2.267235,47.684
2.267591,48.542
2.267946,49.400
2.268301,50.259
2.268657,51.069
2.269012,51.928
2.269367,52.738
2.269723,53.596
2.270078,54.407
2.270434,55.170
2.270789,55.981
2.271144,56.744
2.271500,57.507
2.271855,58.222
2.272210,58.985
2.272566,59.652
2.272921,60.368
2.273276,61.035
2.273632,61.655
2.273987,62.275
2.274343,62.895
2.274698,63.467
2.275053,64.087
2.275409,64.611
2.275764,65.136
2.276119,65.660
2.276475,66.185
2.276830,66.662
2.277186,67.186
2.277541,67.616
2.277896,68.092
2.278252,68.521
2.278607,68.951
2.278962,69.380
2.279318,69.809
2.279673,70.238
2.280028,70.667
2.280384,71.096
2.280739,71.478
2.281095,71.907
2.281450,72.336
2.281805,72.765
2.282161,73.195
2.282516,73.576
2.282871,74.005
2.283227,74.434
2.283582,74.816
2.283937,75.245
2.284293,75.626
2.284648,76.056
2.285004,76.437
2.285359,76.818
2.285714,77.200
2.286070,77.581
2.286425,77.963
2.286780,78.297
2.287136,78.630
2.287491,78.964
2.287846,79.298
2.288202,79.632
2.288557,79.918
2.288913,80.252
2.289268,80.538
2.289623,80.824
2.289979,81.062
2.290334,81.348
2.290689,81.587
2.291045,81.825
2.291400,82.064
2.291756,82.254
2.292111,82.493
2.292466,82.684
2.292822,82.922
2.293177,83.113
2.293532,83.303
2.293888,83.494
2.294243,83.685
2.294598,83.828
2.294954,84.019
2.295309,84.162
2.295665,84.352
2.296020,84.496
2.296375,84.686
2.296731,84.829
2.297086,84.972
2.297441,85.163
2.297797,85.354
2.298152,85.497
2.298507,85.688
2.298863,85.878
2.299218,86.069
2.299574,86.260
2.299929,86.498
2.300284,86.689
2.300640,86.880
2.300995,87.070
2.301350,87.261
2.301706,87.500
2.302061,87.690
2.302416,87.881
2.302772,88.072
2.303127,88.263
2.303483,88.406
2.303838,88.596
2.304193,88.739
2.304549,88.930
2.304904,89.073
2.305259,89.216
2.305615,89.359
2.305970,89.455
2.306326,89.550
2.306681,89.645
2.307036,89.741
2.307392,89.836
2.307747,89.931
2.308102,89.979
2.308458,90.027
2.308813,90.075
2.309168,90.122
2.309524,90.170
2.309879,90.218
2.310235,90.218
2.310590,90.265
2.310945,90.265
2.311301,90.313
2.311656,90.313
2.312011,90.361
2.312367,90.361
2.312722,90.408
2.313077,90.408
2.313433,90.456
2.313788,90.456
2.314144,90.504
2.314499,90.551
2.314854,90.599
2.315210,90.647
2.315565,90.742
2.315920,90.790
2.316276,90.837
2.316631,90.885
2.316986,90.981
2.317342,91.028
2.317697,91.076
2.318053,91.171
2.318408,91.219
2.318763,91.267
2.319119,91.314
2.319474,91.362
2.319829,91.410
2.320185,91.410
2.320540,91.457
2.320896,91.457
2.321251,91.505
2.321606,91.505
2.321962,91.505
2.322317,91.505
2.322672,91.505
2.323028,91.457
2.323383,91.457
2.323738,91.457
2.324094,91.410
2.324449,91.410
2.324805,91.362
2.325160,91.314
2.325515,91.267
2.325871,91.219
2.326226,91.171
2.326581,91.124
2.326937,91.076
2.327292,90.981
2.327647,90.933
2.328003,90.837
2.328358,90.742
2.328714,90.647
2.329069,90.551
2.329424,90.456
2.329780,90.408
2.330135,90.313
2.330490,90.218
2.330846,90.122
2.331201,90.075
2.331557,89.979
2.331912,89.931
2.332267,89.884
2.332623,89.836
2.332978,89.788
2.333333,89.741
2.333689,89.645
2.334044,89.598
2.334399,89.550
2.334755,89.502
2.335110,89.407
2.335466,89.312
2.335821,89.216
2.336176,89.073
2.336532,88.978
2.336887,88.835
2.337242,88.692
2.337598,88.501
2.337953,88.310
2.338308,88.120
2.338664,87.929
2.339019,87.690
2.339375,87.452
2.339730,87.214
2.340085,86.927
2.340441,86.689
2.340796,86.403
2.341151,86.117
2.341507,85.831
2.341862,85.545
2.342217,85.258
2.342573,84.972
2.342928,84.639
2.343284,84.352
2.343639,84.019
2.343994,83.733
2.344350,83.447
2.344705,83.113
2.345060,82.827
2.345416,82.541
2.345771,82.254
2.346127,81.968
2.346482,81.730
2.346837,81.444
2.347193,81.205
2.347548,80.967
2.347903,80.729
2.348259,80.538
2.348614,80.299
2.348969,80.109
2.349325,79.918
2.349680,79.727
2.350036,79.536
2.350391,79.346
2.350746,79.155
2.351102,78.964
2.351457,78.821
2.351812,78.630
2.352168,78.440
2.352523,78.249
2.352878,78.058
2.353234,77.868
2.353589,77.677
2.353945,77.486
2.354300,77.248
2.354655,77.057
2.355011,76.818
2.355366,76.580
2.355721,76.342
2.356077,76.103
2.356432,75.865
2.356787,75.626
2.357143,75.340
2.357498,75.054
2.357854,74.816
2.358209,74.530
2.358564,74.244
2.358920,73.910
2.359275,73.624
2.359630,73.338
2.359986,73.004
2.360341,72.718
2.360697,72.384
2.361052,72.098
2.361407,71.764
2.361763,71.430
2.362118,71.144
2.362473,70.810
2.362829,70.477
2.363184,70.143
2.363539,69.857
2.363895,69.523
2.364250,69.237
2.364606,68.951
2.364961,68.665
2.365316,68.378
2.365672,68.092
2.366027,67.806
2.366382,67.568
2.366738,67.282
2.367093,66.996
2.367448,66.757
2.367804,66.519
2.368159,66.233
2.368515,65.994
2.368870,65.708
2.369225,65.470
2.369581,65.184
2.369936,64.898
2.370291,64.659
2.370647,64.373
2.371002,64.087
2.371357,63.801
2.371713,63.515
2.372068,63.229
2.372424,62.943
2.372779,62.656
2.373134,62.370
2.373490,62.037
2.373845,61.750
2.374200,61.464
2.374556,61.131
2.374911,60.844
2.375267,60.511
2.375622,60.225
2.375977,59.891
2.376333,59.557
2.376688,59.223
2.377043,58.937
2.377399,58.603
2.377754,58.270
2.378109,57.936
2.378465,57.602
2.378820,57.268
2.379176,56.934
2.379531,56.601
2.379886,56.267
2.380242,55.933
2.380597,55.599
2.380952,55.313
2.381308,55.027
2.381663,54.741
2.382018,54.502
2.382374,54.216
2.382729,53.978
2.383085,53.740
2.383440,53.501
2.383795,53.263
2.384151,53.024
2.384506,52.834
2.384861,52.595
2.385217,52.404
2.385572,52.166
2.385928,51.928
2.386283,51.737
2.386638,51.498
2.386994,51.260
2.387349,51.022
2.387704,50.783
2.388060,50.497
2.388415,50.211
2.388770,49.973
2.389126,49.686
2.389481,49.353
2.389837,49.067
2.390192,48.733
2.390547,48.399
2.390903,48.065
2.391258,47.731
2.391613,47.398
2.391969,47.016
2.392324,46.635
2.392679,46.253
2.393035,45.872
2.393390,45.490
2.393746,45.109
2.394101,44.727
2.394456,44.298
2.394812,43.917
2.395167,43.535
2.395522,43.106
2.395878,42.725
2.396233,42.343
2.396588,41.914
2.396944,41.533
2.397299,41.151
2.397655,40.817
2.398010,40.436
2.398365,40.054
2.398721,39.721
2.399076,39.387
2.399431,39.005
2.399787,38.671
2.400142,38.338
2.400498,38.004
2.400853,37.670
2.401208,37.384
2.401564,37.050
2.401919,36.716
2.402274,36.383
2.402630,36.097
2.402985,35.763
2.403340,35.429
2.403696,35.143
2.404051,34.809
2.404407,34.475
2.404762,34.189
2.405117,33.855
2.405473,33.522
2.405828,33.188
2.406183,32.854
2.406539,32.568
2.406894,32.234
2.407249,31.900
2.407605,31.567
2.407960,31.233
2.408316,30.899
2.408671,30.565
2.409026,30.279
2.409382,29.945
2.409737,29.612
2.410092,29.325
2.410448,28.992
2.410803,28.706
2.411158,28.419
2.411514,28.086
2.411869,27.800
2.412225,27.514
2.412580,27.227
2.412935,26.894
2.413291,26.608
2.413646,26.321
2.414001,25.988
2.414357,25.702
2.414712,25.415
2.415068,25.082
2.415423,24.796
2.415778,24.462
2.416134,24.128
2.416489,23.842
2.416844,23.508
2.417200,23.174
2.417555,22.840
2.417910,22.507
2.418266,22.173
2.418621,21.839
2.418977,21.505
2.419332,21.172
2.419687,20.838
2.420043,20.456
2.420398,20.123
2.420753,19.789
2.421109,19.455
2.421464,19.121
2.421819,18.835
2.422175,18.501
2.422530,18.167
2.422886,17.881
2.423241,17.595
2.423596,17.309
2.423952,17.023
2.424307,16.737
2.424662,16.451
2.425018,16.212
2.425373,15.926
2.425729,15.688
2.426084,15.402
2.426439,15.163
2.426795,14.925
2.427150,14.687
2.427505,14.400
2.427861,14.162
2.428216,13.924
2.428571,13.685
2.428927,13.399
2.429282,13.161
2.429638,12.922
2.429993,12.684
2.430348,12.445
2.430704,12.207
2.431059,11.969
2.431414,11.778
2.431770,11.539
2.432125,11.349
2.432480,11.110
2.432836,10.920
2.433191,10.729
2.433547,10.538
2.433902,10.347
2.434257,10.109
2.434613,9.918
2.434968,9.727
2.435323,9.489
2.435679,9.298
2.436034,9.060
2.436389,8.869
2.436745,8.631
2.437100,8.392
2.437456,8.154
2.437811,7.915
2.438166,7.629
2.438522,7.391
2.438877,7.105
2.439232,6.866
2.439588,6.580
2.439943,6.294
2.440299,6.008
2.440654,5.674
2.441009,5.388
2.441365,5.102
2.441720,4.768
2.442075,4.435
2.442431,4.148
2.442786,3.815
2.443141,3.481
2.443497,3.147
2.443852,2.813
2.444208,2.480
2.444563,2.193
2.444918,1.860
2.445274,1.526
2.445629,1.192
2.445984,0.906
2.446340,0.572
2.446695,0.286
2.447050,0.000
2.447406,-0.286
2.447761,-0.525
2.448117,-0.811
2.448472,-1.049
2.448827,-1.335
2.449183,-1.574
2.449538,-1.812
2.449893,-2.003
2.450249,-2.241
2.450604,-2.480
2.450959,-2.670
2.451315,-2.861
2.451670,-3.099
2.452026,-3.290
2.452381,-3.481
2.452736,-3.672
2.453092,-3.910
2.453447,-4.101
2.453802,-4.292
2.454158,-4.530
2.454513,-4.721
2.454869,-4.959
2.455224,-5.198
2.455579,-5.436
2.455935,-5.674
2.456290,-5.913
2.456645,-6.199
2.457001,-6.437
2.457356,-6.723
2.457711,-7.010
2.458067,-7.296
2.458422,-7.582
2.458778,-7.868
2.459133,-8.154
2.459488,-8.440
2.459844,-8.726
2.460199,-9.012
2.460554,-9.298
2.460910,-9.584
2.461265,-9.871
2.461620,-10.157
2.461976,-10.443
2.462331,-10.729
2.462687,-10.967
2.463042,-11.253
2.463397,-11.492
2.463753,-11.730
2.464108,-11.969
2.464463,-12.207
2.464819,-12.398
2.465174,-12.636
2.465529,-12.827
2.465885,-13.018
2.466240,-13.161
2.466596,-13.351
2.466951,-13.494
2.467306,-13.638
2.467662,-13.781
2.468017,-13.924
2.468372,-14.067
2.468728,-14.210
2.469083,-14.305
2.469439,-14.448
2.469794,-14.544
2.470149,-14.639
2.470505,-14.782
2.470860,-14.877
2.471215,-14.973
2.471571,-15.068
2.471926,-15.163
2.472281,-15.306
2.472637,-15.402
2.472992,-15.545
2.473348,-15.640
2.473703,-15.783
2.474058,-15.879
2.474414,-16.022
2.474769,-16.165
2.475124,-16.308
2.475480,-16.451
2.475835,-16.594
2.476190,-16.737
2.476546,-16.928
2.476901,-17.071
2.477257,-17.214
2.477612,-17.405
2.477967,-17.548
2.478323,-17.738
2.478678,-17.929
2.479033,-18.120
2.479389,-18.263
2.479744,-18.454
2.480100,-18.644
2.480455,-18.883
2.480810,-19.073
2.481166,-19.264
2.481521,-19.455
2.481876,-19.693
2.482232,-19.884
2.482587,-20.075
2.482942,-20.266
2.483298,-20.504
2.483653,-20.695
2.484009,-20.885
2.484364,-21.124
2.484719,-21.315
2.485075,-21.505
2.485430,-21.696
2.485785,-21.887
2.486141,-22.078
2.486496,-22.268
2.486851,-22.459
2.487207,-22.602
2.487562,-22.793
2.487918,-22.936
2.488273,-23.079
2.488628,-23.270
2.488984,-23.413
2.489339,-23.556
2.489694,-23.699
2.490050,-23.794
2.490405,-23.937
2.490760,-24.080
2.491116,-24.176
2.491471,-24.271
2.491827,-24.366
2.492182,-24.509
2.492537,-24.557
2.492893,-24.652
2.493248,-24.748
2.493603,-24.843
2.493959,-24.891
2.494314,-24.986
2.494670,-25.034
2.495025,-25.129
2.495380,-25.177
2.495736,-25.225
2.496091,-25.272
2.496446,-25.320
2.496802,-25.368
2.497157,-25.415
2.497512,-25.415
2.497868,-25.463
2.498223,-25.463
2.498579,-25.415
2.498934,-25.415
2.499289,-25.368
2.499645,-25.320
2.500000,-25.225
2.500355,-25.177
2.500711,-25.082
2.501066,-25.034
2.501421,-24.939
2.501777,-24.891
2.502132,-24.796
2.502488,-24.748
2.502843,-24.700
2.503198,-24.652
2.503554,-24.605
2.503909,-24.605
2.504264,-24.605
2.504620,-24.605
2.504975,-24.652
2.505330,-24.700
2.505686,-24.796
2.506041,-24.891
2.506397,-24.986
2.506752,-25.129
2.507107,-25.272
2.507463,-25.463
2.507818,-25.654
2.508173,-25.892
2.508529,-26.083
2.508884,-26.321
2.509240,-26.560
2.509595,-26.846
2.509950,-27.132
2.510306,-27.370
2.510661,-27.657
2.511016,-27.943
2.511372,-28.276
2.511727,-28.563
2.512082,-28.849
2.512438,-29.135
2.512793,-29.421
2.513149,-29.755
2.513504,-29.993
2.513859,-30.279
2.514215,-30.565
2.514570,-30.851
2.514925,-31.090
2.515281,-31.328
2.515636,-31.567
2.515991,-31.805
2.516347,-31.996
2.516702,-32.187
2.517058,-32.377
2.517413,-32.568
2.517768,-32.711
2.518124,-32.854
2.518479,-32.997
2.518834,-33.140
2.519190,-33.236
2.519545,-33.331
2.519900,-33.426
2.520256,-33.474
2.520611,-33.522
2.520967,-33.569
2.521322,-33.617
2.521677,-33.617
2.522033,-33.665
2.522388,-33.665
2.522743,-33.712
2.523099,-33.712
2.523454,-33.712
2.523810,-33.760
2.524165,-33.760
2.524520,-33.760
2.524876,-33.760
2.525231,-33.808
2.525586,-33.808
2.525942,-33.808
2.526297,-33.808
2.526652,-33.855
2.527008,-33.855
2.527363,-33.855
2.527719,-33.903
2.528074,-33.903
2.528429,-33.903
2.528785,-33.903
2.529140,-33.903
2.529495,-33.903
2.529851,-33.903
2.530206,-33.903
2.530561,-33.903
2.530917,-33.855
2.531272,-33.808
2.531628,-33.760
2.531983,-33.712
2.532338,-33.665
2.532694,-33.617
2.533049,-33.569
2.533404,-33.522
2.533760,-33.474
2.534115,-33.379
2.534471,-33.331
2.534826,-33.283
2.535181,-33.188
2.535537,-33.140
2.535892,-33.092
2.536247,-32.997
2.536603,-32.949
2.536958,-32.902
2.537313,-32.854
2.537669,-32.806
2.538024,-32.806
2.538380,-32.759
2.538735,-32.759
2.539090,-32.759
2.539446,-32.759
2.539801,-32.759
2.540156,-32.759
2.540512,-32.806
2.540867,-32.854
2.541222,-32.902
2.541578,-32.997
2.541933,-33.045
2.542289,-33.092
2.542644,-33.188
2.542999,-33.283
2.543355,-33.331
2.543710,-33.426
2.544065,-33.522
2.544421,-33.569
2.544776,-33.665
2.545131,-33.760
2.545487,-33.808
2.545842,-33.903
2.546198,-33.951
2.546553,-33.998
2.546908,-34.046
2.547264,-34.094
2.547619,-34.142
2.547974,-34.189
2.548330,-34.237
2.548685,-34.237
2.549041,-34.285
2.549396,-34.285
2.549751,-34.285
2.550107,-34.285
2.550462,-34.285
2.550817,-34.285
2.551173,-34.237
2.551528,-34.237
2.551883,-34.189
2.552239,-34.189
2.552594,-34.142
2.552950,-34.094
2.553305,-34.046
2.553660,-33.998
2.554016,-33.951
2.554371,-33.903
2.554726,-33.855
2.555082,-33.760
2.555437,-33.712
2.555792,-33.617
2.556148,-33.569
2.556503,-33.474
2.556859,-33.379
2.557214,-33.283
2.557569,-33.236
2.557925,-33.140
2.558280,-33.045
2.558635,-32.949
2.558991,-32.854
2.559346,-32.759
2.559701,-32.663
2.560057,-32.568
2.560412,-32.520
2.560768,-32.425
2.561123,-32.330
2.561478,-32.234
2.561834,-32.139
2.562189,-32.043
2.562544,-31.948
2.562900,-31.853
2.563255,-31.757
2.563611,-31.662
2.563966,-31.519
2.564321,-31.376
2.564677,-31.233
2.565032,-31.090
2.565387,-30.947
2.565743,-30.804
2.566098,-30.661
2.566453,-30.470
2.566809,-30.327
2.567164,-30.184
2.567520,-30.041
2.567875,-29.898
2.568230,-29.755
2.568586,-29.612
2.568941,-29.469
2.569296,-29.373
2.569652,-29.230
2.570007,-29.135
2.570362,-29.087
2.570718,-28.992
2.571073,-28.944
2.571429,-28.896
2.571784,-28.849
2.572139,-28.849
2.572495,-28.849
2.572850,-28.849
2.573205,-28.896
2.573561,-28.944
2.573916,-28.992
2.574271,-29.087
2.574627,-29.135
2.574982,-29.230
2.575338,-29.325
2.575693,-29.469
2.576048,-29.564
2.576404,-29.707
2.576759,-29.802
2.577114,-29.945
2.577470,-30.041
2.577825,-30.136
2.578181,-30.279
2.578536,-30.375
2.578891,-30.470
2.579247,-30.565
2.579602,-30.661
2.579957,-30.708
2.580313,-30.756
2.580668,-30.804
2.581023,-30.804
2.581379,-30.804
2.581734,-30.804
2.582090,-30.756
2.582445,-30.708
2.582800,-30.613
2.583156,-30.518
2.583511,-30.422
2.583866,-30.327
2.584222,-30.184
2.584577,-30.041
2.584932,-29.898
2.585288,-29.755
2.585643,-29.612
2.585999,-29.469
2.586354,-29.278
2.586709,-29.087
2.587065,-28.944
2.587420,-28.753
2.587775,-28.610
2.588131,-28.419
2.588486,-28.276
2.588842,-28.133
2.589197,-27.943
2.589552,-27.800
2.589908,-27.657
2.590263,-27.561
2.590618,-27.418
2.590974,-27.275
2.591329,-27.180
2.591684,-27.084
2.592040,-26.941
2.592395,-26.846
2.592751,-26.798
2.593106,-26.703
2.593461,-26.608
2.593817,-26.560
2.594172,-26.464
2.594527,-26.417
2.594883,-26.369
2.595238,-26.321
2.595593,-26.274
2.595949,-26.226
2.596304,-26.226
2.596660,-26.178
2.597015,-26.131
2.597370,-26.131
2.597726,-26.083
2.598081,-26.035
2.598436,-25.988
2.598792,-25.892
2.599147,-25.845
2.599502,-25.749
2.599858,-25.702
2.600213,-25.606
2.600569,-25.511
2.600924,-25.368
2.601279,-25.272
2.601635,-25.177
2.601990,-25.034
2.602345,-24.939
2.602701,-24.796
2.603056,-24.700
2.603412,-24.557
2.603767,-24.462
2.604122,-24.366
2.604478,-24.223
2.604833,-24.128
2.605188,-24.033
2.605544,-23.985
2.605899,-23.890
2.606254,-23.842
2.606610,-23.794
2.606965,-23.746
2.607321,-23.699
2.607676,-23.699
2.608031,-23.699
2.608387,-23.699
2.608742,-23.699
2.609097,-23.746
2.609453,-23.794
2.609808,-23.794
2.610163,-23.842
2.610519,-23.890
2.610874,-23.937
2.611230,-23.985
2.611585,-23.985
2.611940,-24.033
2.612296,-24.080
2.612651,-24.080
2.613006,-24.128
2.613362,-24.128
2.613717,-24.080
2.614072,-24.080
2.614428,-24.033
2.614783,-23.985
2.615139,-23.890
2.615494,-23.794
2.615849,-23.699
2.616205,-23.556
2.616560,-23.460
2.616915,-23.317
2.617271,-23.127
2.617626,-22.984
2.617982,-22.793
2.618337,-22.602
2.618692,-22.411
2.619048,-22.221
2.619403,-22.030
2.619758,-21.839
2.620114,-21.648
2.620469,-21.458
2.620824,-21.267
2.621180,-21.076
2.621535,-20.885
2.621891,-20.695
2.622246,-20.504
2.622601,-20.361
2.622957,-20.170
2.623312,-20.027
2.623667,-19.884
2.624023,-19.741
2.624378,-19.598
2.624733,-19.455
2.625089,-19.360
2.625444,-19.264
2.625800,-19.121
2.626155,-19.026
2.626510,-18.978
2.626866,-18.883
2.627221,-18.787
2.627576,-18.740
2.627932,-18.644
2.628287,-18.597
2.628643,-18.549
